# Version 1.0
# tree entry: B-Field (Ms)_Abs (Y)

              0   1.3898291E-01
           0.01   1.3634462E-01
           0.02   1.3370631E-01
           0.03   1.3106799E-01
           0.04   1.2842970E-01
           0.05   1.2579140E-01
           0.06   1.2315309E-01
           0.07   1.2051480E-01
           0.08   1.1787650E-01
           0.09   1.1523819E-01
            0.1   1.1259989E-01
           0.11   1.0996159E-01
           0.12   1.0732329E-01
           0.13   1.0468498E-01
           0.14   1.0204669E-01
           0.15   9.9408377E-02
           0.16   9.7503726E-02
           0.17   9.5730086E-02
           0.18   9.3956430E-02
           0.19   9.2182790E-02
            0.2   9.0409134E-02
           0.21   8.8635494E-02
           0.22   8.6861854E-02
           0.23   8.5088199E-02
           0.24   8.3314558E-02
           0.25   8.1540903E-02
           0.26   7.9767263E-02
           0.27   7.7993615E-02
           0.28   7.6219968E-02
           0.29   7.4446328E-02
            0.3   7.2672673E-02
           0.31   7.1367213E-02
           0.32   7.0265303E-02
           0.33   6.9163387E-02
           0.34   6.8061478E-02
           0.35   6.6959576E-02
           0.36   6.5857668E-02
           0.37   6.4755759E-02
           0.38   6.3653851E-02
           0.39   6.2551943E-02
            0.4   6.1450029E-02
           0.41   6.0348122E-02
           0.42   5.9246219E-02
           0.43   5.8144309E-02
           0.44   5.7042403E-02
           0.45   5.5940501E-02
           0.46   5.5094973E-02
           0.47   5.4463101E-02
           0.48   5.3831234E-02
           0.49   5.3199358E-02
            0.5   5.2567487E-02
           0.51   5.1935615E-02
           0.52   5.1303744E-02
           0.53   5.0671873E-02
           0.54   5.0039998E-02
           0.55   4.9408127E-02
           0.56   4.8776256E-02
           0.57   4.8144385E-02
           0.58   4.7512514E-02
           0.59   4.6880643E-02
            0.6   4.6248772E-02
           0.61   4.5738018E-02
           0.62   4.5413601E-02
           0.63   4.5089183E-02
           0.64   4.4764769E-02
           0.65   4.4440351E-02
           0.66   4.4115934E-02
           0.67   4.3791516E-02
           0.68   4.3467098E-02
           0.69   4.3142685E-02
            0.7   4.2818267E-02
           0.71   4.2493849E-02
           0.72   4.2169428E-02
           0.73   4.1845014E-02
           0.74   4.1520601E-02
           0.75   4.1196180E-02
           0.76   4.0917326E-02
           0.77   4.0780855E-02
           0.78   4.0644379E-02
           0.79   4.0507904E-02
            0.8   4.0371432E-02
           0.81   4.0234960E-02
           0.82   4.0098481E-02
           0.83   3.9962009E-02
           0.84   3.9825537E-02
           0.85   3.9689058E-02
           0.86   3.9552587E-02
           0.87   3.9416111E-02
           0.88   3.9279636E-02
           0.89   3.9143164E-02
            0.9   3.9006693E-02
           0.91   3.8879668E-02
           0.92   3.8847157E-02
           0.93   3.8814650E-02
           0.94   3.8782143E-02
           0.95   3.8749632E-02
           0.96   3.8717125E-02
           0.97   3.8684618E-02
           0.98   3.8652110E-02
           0.99   3.8619599E-02
              1   3.8587089E-02
           1.01   3.8554581E-02
           1.02   3.8522074E-02
           1.03   3.8489567E-02
           1.04   3.8457060E-02
           1.05   3.8424553E-02
           1.06   3.8392042E-02
           1.07   3.8405642E-02
           1.08   3.8422212E-02
           1.09   3.8438785E-02
            1.1   3.8455358E-02
           1.11   3.8471931E-02
           1.12   3.8488504E-02
           1.13   3.8505074E-02
           1.14   3.8521651E-02
           1.15   3.8538220E-02
           1.16   3.8554794E-02
           1.17   3.8571367E-02
           1.18   3.8587936E-02
           1.19   3.8604514E-02
            1.2   3.8621083E-02
           1.21   3.8637657E-02
           1.22   3.8666456E-02
           1.23   3.8698553E-02
           1.24   3.8730646E-02
           1.25   3.8762739E-02
           1.26   3.8794832E-02
           1.27   3.8826925E-02
           1.28   3.8859022E-02
           1.29   3.8891112E-02
            1.3   3.8923208E-02
           1.31   3.8955298E-02
           1.32   3.8987395E-02
           1.33   3.9019484E-02
           1.34   3.9051581E-02
           1.35   3.9083671E-02
           1.36   3.9115767E-02
           1.37   3.9145666E-02
           1.38   3.9174306E-02
           1.39   3.9202953E-02
            1.4   3.9231593E-02
           1.41   3.9260241E-02
           1.42   3.9288881E-02
           1.43   3.9317528E-02
           1.44   3.9346168E-02
           1.45   3.9374816E-02
           1.46   3.9403456E-02
           1.47   3.9432100E-02
           1.48   3.9460743E-02
           1.49   3.9489387E-02
            1.5   3.9518031E-02
           1.51   3.9546675E-02
           1.52   3.9569381E-02
           1.53   3.9585780E-02
           1.54   3.9602178E-02
           1.55   3.9618577E-02
           1.56   3.9634976E-02
           1.57   3.9651374E-02
           1.58   3.9667773E-02
           1.59   3.9684172E-02
            1.6   3.9700571E-02
           1.61   3.9716969E-02
           1.62   3.9733368E-02
           1.63   3.9749767E-02
           1.64   3.9766165E-02
           1.65   3.9782564E-02
           1.66   3.9798963E-02
           1.67   3.9810001E-02
           1.68   3.9810317E-02
           1.69   3.9810637E-02
            1.7   3.9810950E-02
           1.71   3.9811266E-02
           1.72   3.9811582E-02
           1.73   3.9811899E-02
           1.74   3.9812215E-02
           1.75   3.9812532E-02
           1.76   3.9812848E-02
           1.77   3.9813165E-02
           1.78   3.9813481E-02
           1.79   3.9813798E-02
            1.8   3.9814115E-02
           1.81   3.9814431E-02
           1.82   3.9811611E-02
           1.83   3.9794691E-02
           1.84   3.9777767E-02
           1.85   3.9760843E-02
           1.86   3.9743923E-02
           1.87   3.9726996E-02
           1.88   3.9710076E-02
           1.89   3.9693152E-02
            1.9   3.9676228E-02
           1.91   3.9659304E-02
           1.92   3.9642381E-02
           1.93   3.9625461E-02
           1.94   3.9608533E-02
           1.95   3.9591614E-02
           1.96   3.9574694E-02
           1.97   3.9557275E-02
           1.98   3.9524172E-02
           1.99   3.9491061E-02
              2   3.9457951E-02
           2.01   3.9424845E-02
           2.02   3.9391738E-02
           2.03   3.9358628E-02
           2.04   3.9325517E-02
           2.05   3.9292411E-02
           2.06   3.9259304E-02
           2.07   3.9226194E-02
           2.08   3.9193087E-02
           2.09   3.9159981E-02
            2.1   3.9126871E-02
           2.11   3.9093764E-02
           2.12   3.9060654E-02
           2.13   3.9015291E-02
           2.14   3.8968233E-02
           2.15   3.8921174E-02
           2.16   3.8874120E-02
           2.17   3.8827066E-02
           2.18   3.8780008E-02
           2.19   3.8732953E-02
            2.2   3.8685899E-02
           2.21   3.8638841E-02
           2.22   3.8591786E-02
           2.23   3.8544732E-02
           2.24   3.8497674E-02
           2.25   3.8450616E-02
           2.26   3.8403565E-02
           2.27   3.8356507E-02
           2.28   3.8301291E-02
           2.29   3.8243020E-02
            2.3   3.8184741E-02
           2.31   3.8126470E-02
           2.32   3.8068191E-02
           2.33   3.8009920E-02
           2.34   3.7951645E-02
           2.35   3.7893371E-02
           2.36   3.7835096E-02
           2.37   3.7776821E-02
           2.38   3.7718546E-02
           2.39   3.7660271E-02
            2.4   3.7601997E-02
           2.41   3.7543722E-02
           2.42   3.7485451E-02
           2.43   3.7422352E-02
           2.44   3.7355706E-02
           2.45   3.7289057E-02
           2.46   3.7222408E-02
           2.47   3.7155763E-02
           2.48   3.7089113E-02
           2.49   3.7022464E-02
            2.5   3.6955819E-02
           2.51   3.6889170E-02
           2.52   3.6822520E-02
           2.53   3.6755875E-02
           2.54   3.6689226E-02
           2.55   3.6622577E-02
           2.56   3.6555931E-02
           2.57   3.6489286E-02
           2.58   3.6420022E-02
           2.59   3.6347211E-02
            2.6   3.6274404E-02
           2.61   3.6201597E-02
           2.62   3.6128790E-02
           2.63   3.6055975E-02
           2.64   3.5983168E-02
           2.65   3.5910361E-02
           2.66   3.5837554E-02
           2.67   3.5764743E-02
           2.68   3.5691933E-02
           2.69   3.5619126E-02
            2.7   3.5546319E-02
           2.71   3.5473508E-02
           2.72   3.5400698E-02
           2.73   3.5326557E-02
           2.74   3.5248859E-02
           2.75   3.5171160E-02
           2.76   3.5093462E-02
           2.77   3.5015764E-02
           2.78   3.4938065E-02
           2.79   3.4860367E-02
            2.8   3.4782665E-02
           2.81   3.4704967E-02
           2.82   3.4627268E-02
           2.83   3.4549570E-02
           2.84   3.4471872E-02
           2.85   3.4394170E-02
           2.86   3.4316475E-02
           2.87   3.4238773E-02
           2.88   3.4160609E-02
           2.89   3.4079088E-02
            2.9   3.3997567E-02
           2.91   3.3916043E-02
           2.92   3.3834518E-02
           2.93   3.3753001E-02
           2.94   3.3671477E-02
           2.95   3.3589953E-02
           2.96   3.3508436E-02
           2.97   3.3426911E-02
           2.98   3.3345387E-02
           2.99   3.3263870E-02
              3   3.3182346E-02
           3.01   3.3100822E-02
           3.02   3.3019301E-02
           3.03   3.2937781E-02
           3.04   3.2854145E-02
           3.05   3.2770449E-02
           3.06   3.2686749E-02
           3.07   3.2603046E-02
           3.08   3.2519347E-02
           3.09   3.2435648E-02
            3.1   3.2351949E-02
           3.11   3.2268250E-02
           3.12   3.2184551E-02
           3.13   3.2100848E-02
           3.14   3.2017149E-02
           3.15   3.1933451E-02
           3.16   3.1849752E-02
           3.17   3.1766053E-02
           3.18   3.1682355E-02
           3.19   3.1598530E-02
            3.2   3.1514674E-02
           3.21   3.1430819E-02
           3.22   3.1346964E-02
           3.23   3.1263109E-02
           3.24   3.1179254E-02
           3.25   3.1095399E-02
           3.26   3.1011544E-02
           3.27   3.0927689E-02
           3.28   3.0843834E-02
           3.29   3.0759979E-02
            3.3   3.0676124E-02
           3.31   3.0592269E-02
           3.32   3.0508414E-02
           3.33   3.0424560E-02
           3.34   3.0341650E-02
           3.35   3.0259213E-02
           3.36   3.0176776E-02
           3.37   3.0094339E-02
           3.38   3.0011902E-02
           3.39   2.9929465E-02
            3.4   2.9847028E-02
           3.41   2.9764591E-02
           3.42   2.9682154E-02
           3.43   2.9599717E-02
           3.44   2.9517280E-02
           3.45   2.9434843E-02
           3.46   2.9352406E-02
           3.47   2.9269969E-02
           3.48   2.9187533E-02
           3.49   2.9106159E-02
            3.5   2.9025790E-02
           3.51   2.8945422E-02
           3.52   2.8865051E-02
           3.53   2.8784680E-02
           3.54   2.8704310E-02
           3.55   2.8623939E-02
           3.56   2.8543569E-02
           3.57   2.8463199E-02
           3.58   2.8382828E-02
           3.59   2.8302458E-02
            3.6   2.8222087E-02
           3.61   2.8141717E-02
           3.62   2.8061349E-02
           3.63   2.7980977E-02
           3.64   2.7901337E-02
           3.65   2.7822978E-02
           3.66   2.7744620E-02
           3.67   2.7666261E-02
           3.68   2.7587903E-02
           3.69   2.7509544E-02
            3.7   2.7431186E-02
           3.71   2.7352828E-02
           3.72   2.7274469E-02
           3.73   2.7196111E-02
           3.74   2.7117753E-02
           3.75   2.7039393E-02
           3.76   2.6961037E-02
           3.77   2.6882679E-02
           3.78   2.6804319E-02
           3.79   2.6726346E-02
            3.8   2.6649806E-02
           3.81   2.6573266E-02
           3.82   2.6496728E-02
           3.83   2.6420190E-02
           3.84   2.6343650E-02
           3.85   2.6267110E-02
           3.86   2.6190571E-02
           3.87   2.6114032E-02
           3.88   2.6037491E-02
           3.89   2.5960951E-02
            3.9   2.5884413E-02
           3.91   2.5807875E-02
           3.92   2.5731335E-02
           3.93   2.5654795E-02
           3.94   2.5578374E-02
           3.95   2.5503762E-02
           3.96   2.5429154E-02
           3.97   2.5354542E-02
           3.98   2.5279932E-02
           3.99   2.5205322E-02
              4   2.5130712E-02
           4.01   2.5056100E-02
           4.02   2.4981492E-02
           4.03   2.4906881E-02
           4.04   2.4832273E-02
           4.05   2.4757661E-02
           4.06   2.4683051E-02
           4.07   2.4608442E-02
           4.08   2.4533834E-02
           4.09   2.4459222E-02
            4.1   2.4386818E-02
           4.11   2.4314634E-02
           4.12   2.4242452E-02
           4.13   2.4170268E-02
           4.14   2.4098086E-02
           4.15   2.4025902E-02
           4.16   2.3953722E-02
           4.17   2.3881535E-02
           4.18   2.3809355E-02
           4.19   2.3737172E-02
            4.2   2.3664990E-02
           4.21   2.3592805E-02
           4.22   2.3520625E-02
           4.23   2.3448442E-02
           4.24   2.3376261E-02
           4.25   2.3306400E-02
           4.26   2.3237283E-02
           4.27   2.3168169E-02
           4.28   2.3099051E-02
           4.29   2.3029937E-02
            4.3   2.2960820E-02
           4.31   2.2891706E-02
           4.32   2.2822589E-02
           4.33   2.2753475E-02
           4.34   2.2684358E-02
           4.35   2.2615244E-02
           4.36   2.2546127E-02
           4.37   2.2477013E-02
           4.38   2.2407896E-02
           4.39   2.2338783E-02
            4.4   2.2271773E-02
           4.41   2.2206133E-02
           4.42   2.2140490E-02
           4.43   2.2074852E-02
           4.44   2.2009210E-02
           4.45   2.1943572E-02
           4.46   2.1877929E-02
           4.47   2.1812291E-02
           4.48   2.1746649E-02
           4.49   2.1681011E-02
            4.5   2.1615368E-02
           4.51   2.1549726E-02
           4.52   2.1484088E-02
           4.53   2.1418445E-02
           4.54   2.1352807E-02
           4.55   2.1288722E-02
           4.56   2.1226508E-02
           4.57   2.1164290E-02
           4.58   2.1102076E-02
           4.59   2.1039860E-02
            4.6   2.0977645E-02
           4.61   2.0915430E-02
           4.62   2.0853216E-02
           4.63   2.0790998E-02
           4.64   2.0728784E-02
           4.65   2.0666566E-02
           4.66   2.0604354E-02
           4.67   2.0542138E-02
           4.68   2.0479923E-02
           4.69   2.0417707E-02
            4.7   2.0356404E-02
           4.71   2.0297197E-02
           4.72   2.0237993E-02
           4.73   2.0178785E-02
           4.74   2.0119580E-02
           4.75   2.0060372E-02
           4.76   2.0001165E-02
           4.77   1.9941962E-02
           4.78   1.9882754E-02
           4.79   1.9823551E-02
            4.8   1.9764344E-02
           4.81   1.9705140E-02
           4.82   1.9645933E-02
           4.83   1.9586730E-02
           4.84   1.9527523E-02
           4.85   1.9468708E-02
           4.86   1.9412072E-02
           4.87   1.9355436E-02
           4.88   1.9298800E-02
           4.89   1.9242166E-02
            4.9   1.9185528E-02
           4.91   1.9128896E-02
           4.92   1.9072258E-02
           4.93   1.9015624E-02
           4.94   1.8958988E-02
           4.95   1.8902352E-02
           4.96   1.8845716E-02
           4.97   1.8789082E-02
           4.98   1.8732444E-02
           4.99   1.8675812E-02
              5   1.8619175E-02
           5.01   1.8564959E-02
           5.02   1.8510741E-02
           5.03   1.8456525E-02
           5.04   1.8402311E-02
           5.05   1.8348093E-02
           5.06   1.8293877E-02
           5.07   1.8239662E-02
           5.08   1.8185446E-02
           5.09   1.8131228E-02
            5.1   1.8077014E-02
           5.11   1.8022798E-02
           5.12   1.7968582E-02
           5.13   1.7914365E-02
           5.14   1.7860151E-02
           5.15   1.7805933E-02
           5.16   1.7753917E-02
           5.17   1.7702289E-02
           5.18   1.7650664E-02
           5.19   1.7599036E-02
            5.2   1.7547409E-02
           5.21   1.7495783E-02
           5.22   1.7444159E-02
           5.23   1.7392530E-02
           5.24   1.7340904E-02
           5.25   1.7289278E-02
           5.26   1.7237650E-02
           5.27   1.7186025E-02
           5.28   1.7134397E-02
           5.29   1.7082771E-02
            5.3   1.7031145E-02
           5.31   1.6981495E-02
           5.32   1.6932705E-02
           5.33   1.6883915E-02
           5.34   1.6835124E-02
           5.35   1.6786334E-02
           5.36   1.6737542E-02
           5.37   1.6688754E-02
           5.38   1.6639963E-02
           5.39   1.6591173E-02
            5.4   1.6542382E-02
           5.41   1.6493594E-02
           5.42   1.6444802E-02
           5.43   1.6396013E-02
           5.44   1.6347221E-02
           5.45   1.6298433E-02
           5.46   1.6251213E-02
           5.47   1.6205306E-02
           5.48   1.6159399E-02
           5.49   1.6113491E-02
            5.5   1.6067584E-02
           5.51   1.6021675E-02
           5.52   1.5975769E-02
           5.53   1.5929860E-02
           5.54   1.5883953E-02
           5.55   1.5838046E-02
           5.56   1.5792139E-02
           5.57   1.5746229E-02
           5.58   1.5700324E-02
           5.59   1.5654415E-02
            5.6   1.5608510E-02
           5.61   1.5563650E-02
           5.62   1.5520407E-02
           5.63   1.5477163E-02
           5.64   1.5433919E-02
           5.65   1.5390675E-02
           5.66   1.5347433E-02
           5.67   1.5304187E-02
           5.68   1.5260945E-02
           5.69   1.5217700E-02
            5.7   1.5174457E-02
           5.71   1.5131213E-02
           5.72   1.5087970E-02
           5.73   1.5044726E-02
           5.74   1.5001483E-02
           5.75   1.4958238E-02
           5.76   1.4915563E-02
           5.77   1.4874668E-02
           5.78   1.4833772E-02
           5.79   1.4792877E-02
            5.8   1.4751980E-02
           5.81   1.4711086E-02
           5.82   1.4670189E-02
           5.83   1.4629295E-02
           5.84   1.4588398E-02
           5.85   1.4547504E-02
           5.86   1.4506608E-02
           5.87   1.4465713E-02
           5.88   1.4424817E-02
           5.89   1.4383922E-02
            5.9   1.4343026E-02
           5.91   1.4302328E-02
           5.92   1.4263587E-02
           5.93   1.4224849E-02
           5.94   1.4186109E-02
           5.95   1.4147369E-02
           5.96   1.4108629E-02
           5.97   1.4069891E-02
           5.98   1.4031150E-02
           5.99   1.3992412E-02
              6   1.3953672E-02
           6.01   1.3914933E-02
           6.02   1.3876195E-02
           6.03   1.3837454E-02
           6.04   1.3798716E-02
           6.05   1.3759976E-02
           6.06   1.3721237E-02
           6.07   1.3684514E-02
           6.08   1.3647922E-02
           6.09   1.3611328E-02
            6.1   1.3574736E-02
           6.11   1.3538142E-02
           6.12   1.3501550E-02
           6.13   1.3464956E-02
           6.14   1.3428365E-02
           6.15   1.3391771E-02
           6.16   1.3355179E-02
           6.17   1.3318585E-02
           6.18   1.3281993E-02
           6.19   1.3245400E-02
            6.2   1.3208808E-02
           6.21   1.3172215E-02
           6.22   1.3137338E-02
