# Version 1.0
# tree entry: B-Field (Ms)_Abs (X)

             -1   1.9201018E-01
 -9.9000830E-01   1.9307689E-01
 -9.8001660E-01   1.9414361E-01
 -9.7002490E-01   1.9521034E-01
 -9.6003319E-01   1.9627705E-01
 -9.5004149E-01   1.9721188E-01
 -9.4004979E-01   1.9806787E-01
 -9.3005809E-01   1.9892386E-01
 -9.2006639E-01   1.9977984E-01
 -9.1007469E-01   2.0063582E-01
 -9.0008299E-01   2.0149180E-01
 -8.9009128E-01   2.0234780E-01
 -8.8009958E-01   2.0320378E-01
 -8.7010788E-01   2.0405976E-01
 -8.6011618E-01   2.0483281E-01
 -8.5012448E-01   2.0535369E-01
 -8.4013278E-01   2.0587458E-01
 -8.3014108E-01   2.0639546E-01
 -8.2014937E-01   2.0691635E-01
 -8.1015767E-01   2.0743723E-01
 -8.0016597E-01   2.0795812E-01
 -7.9017427E-01   2.0847900E-01
 -7.8018257E-01   2.0899989E-01
 -7.7019087E-01   2.0952077E-01
 -7.6019917E-01   2.0961858E-01
 -7.5020746E-01   2.0965274E-01
 -7.4021576E-01   2.0968689E-01
 -7.3022406E-01   2.0972104E-01
 -7.2023236E-01   2.0975521E-01
 -7.1024066E-01   2.0978937E-01
 -7.0024896E-01   2.0982352E-01
 -6.9025726E-01   2.0985769E-01
 -6.8026555E-01   2.0989184E-01
 -6.7027385E-01   2.0961797E-01
 -6.6028215E-01   2.0902470E-01
 -6.5029045E-01   2.0843142E-01
 -6.4029875E-01   2.0783813E-01
 -6.3030705E-01   2.0724486E-01
 -6.2031535E-01   2.0665158E-01
 -6.1032364E-01   2.0605831E-01
 -6.0033194E-01   2.0546503E-01
 -5.9034024E-01   2.0487174E-01
 -5.8034854E-01   2.0382798E-01
 -5.7035684E-01   2.0267026E-01
 -5.6036514E-01   2.0151255E-01
 -5.5037344E-01   2.0035481E-01
 -5.4038173E-01   1.9918320E-01
 -5.3039003E-01   1.9759962E-01
 -5.2039833E-01   1.9601603E-01
 -5.1040663E-01   1.9443244E-01
 -5.0041493E-01   1.9284886E-01
 -4.9042323E-01   1.9114751E-01
 -4.8043153E-01   1.8912306E-01
 -4.7043982E-01   1.8709862E-01
 -4.6044812E-01   1.8507418E-01
 -4.5045642E-01   1.8304974E-01
 -4.4046472E-01   1.8080500E-01
 -4.3047302E-01   1.7834140E-01
 -4.2048132E-01   1.7587781E-01
 -4.1048962E-01   1.7341423E-01
 -4.0049791E-01   1.7095064E-01
 -3.9050621E-01   1.6814454E-01
 -3.8051451E-01   1.6525733E-01
 -3.7052281E-01   1.6237013E-01
 -3.6053111E-01   1.5948293E-01
 -3.5053941E-01   1.5654977E-01
 -3.4054771E-01   1.5326434E-01
 -3.3055601E-01   1.4997892E-01
 -3.2056430E-01   1.4669350E-01
 -3.1057260E-01   1.4340807E-01
 -3.0058090E-01   1.3997009E-01
 -2.9058920E-01   1.3632342E-01
 -2.8059750E-01   1.3267674E-01
 -2.7060580E-01   1.2903005E-01
 -2.6061410E-01   1.2538336E-01
 -2.5062239E-01   1.2150693E-01
 -2.4063069E-01   1.1754515E-01
 -2.3063899E-01   1.1358337E-01
 -2.2064729E-01   1.0962159E-01
 -2.1065559E-01   1.0565037E-01
 -2.0066389E-01   1.0142631E-01
 -1.9067219E-01   9.7202271E-02
 -1.8068048E-01   9.2978217E-02
 -1.7068878E-01   8.8754162E-02
 -1.6069708E-01   8.4459774E-02
 -1.5070538E-01   8.0030568E-02
 -1.4071368E-01   7.5601362E-02
 -1.3072198E-01   7.1172155E-02
 -1.2073028E-01   6.6742949E-02
 -1.1073857E-01   6.2219098E-02
 -1.0074687E-01   5.7644226E-02
 -9.0755171E-02   5.3069357E-02
 -8.0763470E-02   4.8494484E-02
 -7.0771768E-02   4.3919615E-02
 -6.0780067E-02   3.9263193E-02
 -5.0788365E-02   3.4603070E-02
 -4.0796664E-02   2.9942952E-02
 -3.0804963E-02   2.5282830E-02
 -2.0813261E-02   2.0616146E-02
 -1.0821560E-02   1.5931113E-02
 -8.2985832E-04   1.1246079E-02
  9.1618431E-03   6.5610446E-03
  1.9153545E-02   1.8760134E-03
  2.9145246E-02   2.7892583E-03
  3.9136947E-02   7.4396441E-03
  4.9128649E-02   1.2090030E-02
  5.9120350E-02   1.6740417E-02
  6.9112052E-02   2.1390805E-02
  7.9103753E-02   2.5959726E-02
  8.9095454E-02   3.0517248E-02
  9.9087156E-02   3.5074774E-02
  1.0907886E-01   3.9632298E-02
  1.1907056E-01   4.4162359E-02
  1.2906226E-01   4.8570737E-02
  1.3905396E-01   5.2979104E-02
  1.4904566E-01   5.7387482E-02
  1.5903736E-01   6.1795861E-02
  1.6902907E-01   6.6104688E-02
  1.7902077E-01   7.0310310E-02
  1.8901247E-01   7.4515939E-02
  1.9900417E-01   7.8721561E-02
  2.0899587E-01   8.2927190E-02
  2.1898757E-01   8.6931244E-02
  2.2897927E-01   9.0884231E-02
  2.3897098E-01   9.4837226E-02
  2.4896268E-01   9.8790213E-02
  2.5895438E-01   1.0271204E-01
  2.6894608E-01   1.0636753E-01
  2.7893778E-01   1.1002301E-01
  2.8892948E-01   1.1367849E-01
  2.9892118E-01   1.1733397E-01
  3.0891289E-01   1.2085122E-01
  3.1890459E-01   1.2417089E-01
  3.2889629E-01   1.2749057E-01
  3.3888799E-01   1.3081023E-01
  3.4887969E-01   1.3412991E-01
  3.5887139E-01   1.3718668E-01
  3.6886309E-01   1.4014043E-01
  3.7885480E-01   1.4309417E-01
  3.8884650E-01   1.4604792E-01
  3.9883820E-01   1.4899188E-01
  4.0882990E-01   1.5155920E-01
  4.1882160E-01   1.5412651E-01
  4.2881330E-01   1.5669383E-01
  4.3880500E-01   1.5926114E-01
  4.4879671E-01   1.6169475E-01
  4.5878841E-01   1.6385961E-01
  4.6878011E-01   1.6602446E-01
  4.7877181E-01   1.6818933E-01
  4.8876351E-01   1.7035419E-01
  4.9875521E-01   1.7231677E-01
  5.0874691E-01   1.7407407E-01
  5.1873862E-01   1.7583136E-01
  5.2873032E-01   1.7758866E-01
  5.3872202E-01   1.7934594E-01
  5.4871372E-01   1.8084192E-01
  5.5870542E-01   1.8220350E-01
  5.6869712E-01   1.8356508E-01
  5.7868882E-01   1.8492666E-01
  5.8868053E-01   1.8628824E-01
  5.9867223E-01   1.8720296E-01
  6.0866393E-01   1.8802251E-01
  6.1865563E-01   1.8884204E-01
  6.2864733E-01   1.8966159E-01
  6.3863903E-01   1.9048114E-01
  6.4863073E-01   1.9130069E-01
  6.5862244E-01   1.9212024E-01
  6.6861414E-01   1.9293979E-01
  6.7860584E-01   1.9375932E-01
  6.8859754E-01   1.9417232E-01
  6.9858924E-01   1.9437920E-01
  7.0858094E-01   1.9458607E-01
  7.1857264E-01   1.9479293E-01
  7.2856435E-01   1.9499980E-01
  7.3855605E-01   1.9520667E-01
  7.4854775E-01   1.9541353E-01
  7.5853945E-01   1.9562040E-01
  7.6853115E-01   1.9582728E-01
  7.7852285E-01   1.9603148E-01
  7.8851455E-01   1.9575506E-01
  7.9850626E-01   1.9547866E-01
  8.0849796E-01   1.9520225E-01
  8.1848966E-01   1.9492584E-01
  8.2848136E-01   1.9464943E-01
  8.3847306E-01   1.9437303E-01
  8.4846476E-01   1.9409661E-01
  8.5845646E-01   1.9382019E-01
  8.6844816E-01   1.9354379E-01
  8.7843987E-01   1.9314742E-01
  8.8843157E-01   1.9252579E-01
  8.9842327E-01   1.9190414E-01
  9.0841497E-01   1.9128250E-01
  9.1840667E-01   1.9066086E-01
  9.2839837E-01   1.9003922E-01
  9.3839007E-01   1.8941759E-01
  9.4838178E-01   1.8879594E-01
  9.5837348E-01   1.8817429E-01
  9.6836518E-01   1.8755266E-01
  9.7835688E-01   1.8677329E-01
  9.8834858E-01   1.8592286E-01
  9.9834028E-01   1.8507242E-01
  1.0083320E+00   1.8422200E-01
  1.0183237E+00   1.8337157E-01
  1.0283154E+00   1.8252115E-01
  1.0383071E+00   1.8167073E-01
  1.0482988E+00   1.8082029E-01
  1.0582905E+00   1.7996986E-01
  1.0682822E+00   1.7911512E-01
  1.0782739E+00   1.7812698E-01
  1.0882656E+00   1.7713884E-01
  1.0982573E+00   1.7615069E-01
  1.1082490E+00   1.7516255E-01
  1.1182407E+00   1.7417440E-01
  1.1282324E+00   1.7318627E-01
  1.1382241E+00   1.7219812E-01
  1.1482158E+00   1.7120998E-01
  1.1582075E+00   1.7022184E-01
  1.1681992E+00   1.6920748E-01
  1.1781909E+00   1.6814916E-01
  1.1881826E+00   1.6709083E-01
  1.1981743E+00   1.6603251E-01
  1.2081660E+00   1.6497418E-01
  1.2181577E+00   1.6391586E-01
  1.2281494E+00   1.6285753E-01
  1.2381411E+00   1.6179921E-01
  1.2481328E+00   1.6074088E-01
  1.2581245E+00   1.5968256E-01
  1.2681162E+00   1.5860839E-01
  1.2781079E+00   1.5752794E-01
  1.2880996E+00   1.5644747E-01
  1.2980913E+00   1.5536702E-01
  1.3080830E+00   1.5428655E-01
  1.3180747E+00   1.5320610E-01
  1.3280664E+00   1.5212563E-01
  1.3380581E+00   1.5104517E-01
  1.3480498E+00   1.4996471E-01
  1.3580415E+00   1.4888486E-01
  1.3680332E+00   1.4781520E-01
  1.3780249E+00   1.4674555E-01
  1.3880166E+00   1.4567588E-01
  1.3980083E+00   1.4460622E-01
  1.4080000E+00   1.4353657E-01
  1.4179917E+00   1.4246690E-01
  1.4279834E+00   1.4139725E-01
  1.4379751E+00   1.4032757E-01
  1.4479668E+00   1.3925792E-01
  1.4579585E+00   1.3820124E-01
  1.4679502E+00   1.3716410E-01
  1.4779420E+00   1.3612694E-01
  1.4879337E+00   1.3508980E-01
  1.4979254E+00   1.3405263E-01
  1.5079171E+00   1.3301550E-01
  1.5179088E+00   1.3197835E-01
  1.5279005E+00   1.3094120E-01
  1.5378922E+00   1.2990406E-01
  1.5478839E+00   1.2886690E-01
  1.5578756E+00   1.2786391E-01
  1.5678673E+00   1.2687285E-01
  1.5778590E+00   1.2588181E-01
  1.5878507E+00   1.2489074E-01
  1.5978424E+00   1.2389968E-01
  1.6078341E+00   1.2290861E-01
  1.6178258E+00   1.2191756E-01
  1.6278175E+00   1.2092650E-01
  1.6378092E+00   1.1993545E-01
  1.6478009E+00   1.1894886E-01
  1.6577926E+00   1.1801174E-01
  1.6677843E+00   1.1707460E-01
  1.6777760E+00   1.1613747E-01
  1.6877677E+00   1.1520035E-01
  1.6977594E+00   1.1426321E-01
  1.7077511E+00   1.1332609E-01
  1.7177428E+00   1.1238895E-01
  1.7277345E+00   1.1145182E-01
  1.7377262E+00   1.1051469E-01
  1.7477179E+00   1.0960211E-01
  1.7577096E+00   1.0872273E-01
  1.7677013E+00   1.0784337E-01
  1.7776930E+00   1.0696399E-01
  1.7876847E+00   1.0608462E-01
  1.7976764E+00   1.0520525E-01
  1.8076681E+00   1.0432588E-01
  1.8176598E+00   1.0344651E-01
  1.8276515E+00   1.0256714E-01
  1.8376432E+00   1.0168777E-01
  1.8476349E+00   1.0085354E-01
  1.8576266E+00   1.0003302E-01
  1.8676183E+00   9.9212505E-02
  1.8776100E+00   9.8391987E-02
  1.8876017E+00   9.7571462E-02
  1.8975934E+00   9.6750952E-02
  1.9075851E+00   9.5930427E-02
  1.9175768E+00   9.5109910E-02
  1.9275685E+00   9.4289392E-02
  1.9375602E+00   9.3475215E-02
  1.9475519E+00   9.2712805E-02
  1.9575436E+00   9.1950402E-02
  1.9675353E+00   9.1187999E-02
  1.9775270E+00   9.0425596E-02
  1.9875187E+00   8.9663193E-02
  1.9975104E+00   8.8900790E-02
  2.0075021E+00   8.8138387E-02
  2.0174938E+00   8.7375991E-02
  2.0274855E+00   8.6613573E-02
  2.0374772E+00   8.5876510E-02
  2.0474689E+00   8.5170299E-02
  2.0574606E+00   8.4464081E-02
  2.0674523E+00   8.3757848E-02
  2.0774440E+00   8.3051637E-02
  2.0874357E+00   8.2345426E-02
  2.0974274E+00   8.1639208E-02
  2.1074191E+00   8.0932975E-02
  2.1174108E+00   8.0226764E-02
  2.1274025E+00   7.9520546E-02
  2.1373942E+00   7.8856766E-02
  2.1473859E+00   7.8204058E-02
  2.1573776E+00   7.7551335E-02
  2.1673693E+00   7.6898627E-02
  2.1773611E+00   7.6245919E-02
  2.1873528E+00   7.5593211E-02
  2.1973445E+00   7.4940488E-02
  2.2073362E+00   7.4287780E-02
  2.2173279E+00   7.3635072E-02
  2.2273196E+00   7.2989166E-02
  2.2373113E+00   7.2386846E-02
  2.2473030E+00   7.1784548E-02
  2.2572947E+00   7.1182244E-02
  2.2672864E+00   7.0579946E-02
  2.2772781E+00   6.9977649E-02
  2.2872698E+00   6.9375329E-02
  2.2972615E+00   6.8773031E-02
  2.3072532E+00   6.8170726E-02
  2.3172449E+00   6.7568429E-02
  2.3272366E+00   6.6988572E-02
  2.3372283E+00   6.6433370E-02
  2.3472200E+00   6.5878160E-02
  2.3572117E+00   6.5322958E-02
  2.3672034E+00   6.4767741E-02
  2.3771951E+00   6.4212531E-02
  2.3871868E+00   6.3657328E-02
  2.3971785E+00   6.3102126E-02
  2.4071702E+00   6.2546909E-02
  2.4171619E+00   6.1991699E-02
  2.4271536E+00   6.1472293E-02
  2.4371453E+00   6.0960803E-02
  2.4471370E+00   6.0449313E-02
  2.4571287E+00   5.9937812E-02
  2.4671204E+00   5.9426326E-02
  2.4771121E+00   5.8914836E-02
  2.4871038E+00   5.8403350E-02
  2.4970955E+00   5.7891846E-02
  2.5070872E+00   5.7380360E-02
  2.5170789E+00   5.6875363E-02
  2.5270706E+00   5.6404259E-02
  2.5370623E+00   5.5933140E-02
  2.5470540E+00   5.5462033E-02
  2.5570457E+00   5.4990925E-02
  2.5670374E+00   5.4519817E-02
  2.5770291E+00   5.4048710E-02
  2.5870208E+00   5.3577594E-02
  2.5970125E+00   5.3106487E-02
  2.6070042E+00   5.2635379E-02
  2.6169959E+00   5.2182946E-02
  2.6269876E+00   5.1748972E-02
  2.6369793E+00   5.1315013E-02
  2.6469710E+00   5.0881051E-02
  2.6569627E+00   5.0447088E-02
  2.6669544E+00   5.0013114E-02
  2.6769461E+00   4.9579155E-02
  2.6869378E+00   4.9145192E-02
  2.6969295E+00   4.8711229E-02
  2.7069212E+00   4.8277255E-02
  2.7169129E+00   4.7872063E-02
  2.7269046E+00   4.7472153E-02
  2.7368963E+00   4.7072247E-02
  2.7468880E+00   4.6672340E-02
 2.756879732711   4.6272423E-02
  2.7668714E+00   4.5872517E-02
  2.7768631E+00   4.5472611E-02
  2.7868548E+00   4.5072705E-02
  2.7968465E+00   4.4672787E-02
  2.8068382E+00   4.4278692E-02
  2.8168299E+00   4.3909919E-02
  2.8268216E+00   4.3541145E-02
  2.8368133E+00   4.3172359E-02
  2.8468050E+00   4.2803586E-02
  2.8567967E+00   4.2434812E-02
  2.8667884E+00   4.2066038E-02
  2.8767801E+00   4.1697264E-02
  2.8867719E+00   4.1328482E-02
  2.8967636E+00   4.0959705E-02
  2.9067553E+00   4.0605940E-02
  2.9167470E+00   4.0265549E-02
  2.9267387E+00   3.9925154E-02
  2.9367304E+00   3.9584767E-02
  2.9467221E+00   3.9244380E-02
  2.9567138E+00   3.8903993E-02
  2.9667055E+00   3.8563594E-02
  2.9766972E+00   3.8223207E-02
  2.9866889E+00   3.7882820E-02
  2.9966806E+00   3.7542433E-02
  3.0066723E+00   3.7224520E-02
  3.0166640E+00   3.6909960E-02
  3.0266557E+00   3.6595397E-02
  3.0366474E+00   3.6280837E-02
  3.0466391E+00   3.5966273E-02
  3.0566308E+00   3.5651706E-02
  3.0666225E+00   3.5337143E-02
  3.0766142E+00   3.5022583E-02
  3.0866059E+00   3.4708019E-02
  3.0965976E+00   3.4398433E-02
  3.1065893E+00   3.4107313E-02
  3.1165810E+00   3.3816192E-02
  3.1265727E+00   3.3525072E-02
  3.1365644E+00   3.3233944E-02
  3.1465561E+00   3.2942824E-02
  3.1565478E+00   3.2651704E-02
  3.1665395E+00   3.2360584E-02
  3.1765312E+00   3.2069463E-02
  3.1865229E+00   3.1778339E-02
  3.1965146E+00   3.1498991E-02
  3.2065063E+00   3.1229099E-02
  3.2164980E+00   3.0959209E-02
  3.2264897E+00   3.0689312E-02
  3.2364814E+00   3.0419422E-02
  3.2464731E+00   3.0149531E-02
  3.2564648E+00   2.9879641E-02
  3.2664565E+00   2.9609744E-02
  3.2764482E+00   2.9339854E-02
  3.2864399E+00   2.9069964E-02
  3.2964316E+00   2.8817270E-02
  3.3064233E+00   2.8566556E-02
  3.3164150E+00   2.8315850E-02
  3.3264067E+00   2.8065141E-02
  3.3363984E+00   2.7814435E-02
  3.3463901E+00   2.7563727E-02
  3.3563818E+00   2.7313014E-02
  3.3663735E+00   2.7062306E-02
  3.3763652E+00   2.6811600E-02
  3.3863569E+00   2.6565013E-02
  3.3963486E+00   2.6331587E-02
 3.406340324802   2.6098164E-02
  3.4163320E+00   2.5864743E-02
  3.4263237E+00   2.5631320E-02
  3.4363154E+00   2.5397893E-02
  3.4463071E+00   2.5164472E-02
  3.4562988E+00   2.4931049E-02
  3.4662905E+00   2.4697628E-02
  3.4762822E+00   2.4464205E-02
  3.4862739E+00   2.4239793E-02
  3.4962656E+00   2.4021903E-02
  3.5062573E+00   2.3804013E-02
  3.5162490E+00   2.3586122E-02
  3.5262407E+00   2.3368228E-02
  3.5362324E+00   2.3150338E-02
  3.5462241E+00   2.2932447E-02
  3.5562158E+00   2.2714557E-02
  3.5662075E+00   2.2496663E-02
  3.5761992E+00   2.2278773E-02
  3.5861910E+00   2.2073707E-02
  3.5961827E+00   2.1869721E-02
  3.6061744E+00   2.1665730E-02
  3.6161661E+00   2.1461744E-02
  3.6261578E+00   2.1257758E-02
  3.6361495E+00   2.1053771E-02
  3.6461412E+00   2.0849785E-02
  3.6561329E+00   2.0645794E-02
  3.6661246E+00   2.0441808E-02
  3.6761163E+00   2.0241097E-02
  3.6861080E+00   2.0049505E-02
  3.6960997E+00   1.9857910E-02
  3.7060914E+00   1.9666318E-02
  3.7160831E+00   1.9474726E-02
  3.7260748E+00   1.9283134E-02
  3.7360665E+00   1.9091539E-02
  3.7460582E+00   1.8899947E-02
  3.7560499E+00   1.8708356E-02
  3.7660416E+00   1.8516764E-02
  3.7760333E+00   1.8331835E-02
  3.7860250E+00   1.8151229E-02
  3.7960167E+00   1.7970627E-02
  3.8060084E+00   1.7790025E-02
  3.8160001E+00   1.7609423E-02
  3.8259918E+00   1.7428815E-02
  3.8359835E+00   1.7248215E-02
  3.8459752E+00   1.7067613E-02
  3.8559669E+00   1.6887011E-02
  3.8659586E+00   1.6706403E-02
  3.8759503E+00   1.6534979E-02
  3.8859420E+00   1.6364055E-02
  3.8959337E+00   1.6193129E-02
  3.9059254E+00   1.6022202E-02
  3.9159171E+00   1.5851276E-02
  3.9259088E+00   1.5680352E-02
  3.9359005E+00   1.5509428E-02
  3.9458922E+00   1.5338503E-02
  3.9558839E+00   1.5167574E-02
  3.9658756E+00   1.4999102E-02
  3.9758673E+00   1.4836625E-02
  3.9858590E+00   1.4674149E-02
  3.9958507E+00   1.4511669E-02
  4.0058424E+00   1.4349196E-02
  4.0158341E+00   1.4186712E-02
  4.0258258E+00   1.4024235E-02
  4.0358175E+00   1.3861759E-02
  4.0458092E+00   1.3699283E-02
 4.055800916893   1.3536806E-02
  4.0657926E+00   1.3378937E-02
  4.0757843E+00   1.3223749E-02
  4.0857760E+00   1.3068561E-02
  4.0957677E+00   1.2913372E-02
  4.1057594E+00   1.2758177E-02
  4.1157511E+00   1.2602989E-02
  4.1257428E+00   1.2447800E-02
  4.1357345E+00   1.2292612E-02
  4.1457262E+00   1.2137424E-02
  4.1557179E+00   1.1982236E-02
  4.1657096E+00   1.1833080E-02
  4.1757013E+00   1.1684085E-02
  4.1856930E+00   1.1535082E-02
  4.1956847E+00   1.1386086E-02
  4.2056764E+00   1.1237091E-02
  4.2156681E+00   1.1088096E-02
  4.2256598E+00   1.0939100E-02
  4.2356515E+00   1.0790104E-02
  4.2456432E+00   1.0641109E-02
  4.2556349E+00   1.0493740E-02
  4.2656266E+00   1.0349889E-02
  4.2756183E+00   1.0206032E-02
  4.2856100E+00   1.0062181E-02
  4.2956018E+00   9.9183312E-03
  4.3055935E+00   9.7744809E-03
  4.3155852E+00   9.6306307E-03
  4.3255769E+00   9.4867805E-03
  4.3355686E+00   9.3429303E-03
  4.3455603E+00   9.1990801E-03
  4.3555520E+00   9.0579474E-03
  4.3655437E+00   8.9182369E-03
  4.3755354E+00   8.7785274E-03
  4.3855271E+00   8.6388178E-03
  4.3955188E+00   8.4991073E-03
  4.4055105E+00   8.3593978E-03
  4.4155022E+00   8.2196873E-03
  4.4254939E+00   8.0799777E-03
  4.4354856E+00   7.9402681E-03
  4.4454773E+00   7.8005511E-03
