# Version 1.0
# tree entry: B-Field (Ms)_Abs (X)

              0   3.0213792E-01
  9.9898366E-03   3.0336428E-01
  1.9979673E-02   3.0459851E-01
  2.9969510E-02   3.0584046E-01
  3.9959346E-02   3.0689254E-01
  4.9949183E-02   3.0794112E-01
  5.9939019E-02   3.0899679E-01
  6.9928856E-02   3.1005954E-01
  7.9918693E-02   3.1112924E-01
  8.9908529E-02   3.1220584E-01
  9.9898366E-02   3.1311445E-01
  1.0988820E-01   3.1399757E-01
  1.1987804E-01   3.1488700E-01
  1.2986788E-01   3.1578273E-01
  1.3985771E-01   3.1668468E-01
  1.4984755E-01   3.1759282E-01
  1.5983739E-01   3.1835538E-01
  1.6982722E-01   3.1907110E-01
  1.7981706E-01   3.1979249E-01
  1.8980689E-01   3.2051952E-01
  1.9979673E-01   3.2125216E-01
  2.0978657E-01   3.2199035E-01
  2.1977640E-01   3.2260557E-01
  2.2976624E-01   3.2315359E-01
  2.3975608E-01   3.2370671E-01
  2.4974591E-01   3.2426491E-01
  2.5973575E-01   3.2482815E-01
  2.6972559E-01   3.2539641E-01
  2.7971542E-01   3.2586420E-01
  2.8970526E-01   3.2624559E-01
  2.9969510E-01   3.2663161E-01
  3.0968493E-01   3.2702218E-01
  3.1967477E-01   3.2741734E-01
  3.2966461E-01   3.2781701E-01
  3.3965444E-01   3.2813835E-01
  3.4964428E-01   3.2835566E-01
  3.5963412E-01   3.2857715E-01
  3.6962395E-01   3.2880277E-01
  3.7961379E-01   3.2903249E-01
  3.8960363E-01   3.2926637E-01
  3.9959346E-01   3.2944324E-01
  4.0958330E-01   3.2950027E-01
  4.1957314E-01   3.2956104E-01
  4.2956297E-01   3.2962559E-01
  4.3955281E-01   3.2969385E-01
  4.4954265E-01   3.2976585E-01
  4.5953248E-01   3.2980120E-01
  4.6952232E-01   3.2970297E-01
  4.7951216E-01   3.2960814E-01
  4.8950199E-01   3.2951666E-01
  4.9949183E-01   3.2942860E-01
  5.0948166E-01   3.2934393E-01
  5.1947150E-01   3.2924155E-01
  5.2946134E-01   3.2899425E-01
  5.3945117E-01   3.2875003E-01
  5.4944101E-01   3.2850885E-01
  5.5943085E-01   3.2827076E-01
  5.6942068E-01   3.2803571E-01
  5.7941052E-01   3.2780030E-01
  5.8940036E-01   3.2741122E-01
  5.9939019E-01   3.2702488E-01
  6.0938003E-01   3.2664130E-01
  6.1936987E-01   3.2626049E-01
  6.2935970E-01   3.2588246E-01
  6.3934954E-01   3.2550718E-01
  6.4933938E-01   3.2499674E-01
  6.5932921E-01   3.2447653E-01
  6.6931905E-01   3.2395882E-01
  6.7930889E-01   3.2344357E-01
  6.8929872E-01   3.2293086E-01
  6.9928856E-01   3.2242062E-01
  7.0927840E-01   3.2179923E-01
  7.1926823E-01   3.2115434E-01
  7.2925807E-01   3.2051170E-01
  7.3924791E-01   3.1987128E-01
  7.4923774E-01   3.1923311E-01
  7.5922758E-01   3.1859716E-01
  7.6921742E-01   3.1787225E-01
  7.7920725E-01   3.1711261E-01
  7.8919709E-01   3.1635491E-01
  7.9918693E-01   3.1559920E-01
  8.0917676E-01   3.1484551E-01
  8.1916660E-01   3.1409380E-01
  8.2915644E-01   3.1327335E-01
  8.3914627E-01   3.1240942E-01
  8.4913611E-01   3.1154720E-01
  8.5912594E-01   3.1068676E-01
  8.6911578E-01   3.0982810E-01
  8.7910562E-01   3.0897119E-01
  8.8909545E-01   3.0806351E-01
  8.9908529E-01   3.0710627E-01
  9.0907513E-01   3.0615053E-01
  9.1906496E-01   3.0519636E-01
  9.2905480E-01   3.0424375E-01
  9.3904464E-01   3.0329267E-01
  9.4903447E-01   3.0230600E-01
  9.5902431E-01   3.0126583E-01
  9.6901415E-01   3.0022696E-01
  9.7900398E-01   2.9918946E-01
  9.8899382E-01   2.9815328E-01
  9.9898366E-01   2.9711848E-01
  1.0089735E+00   2.9606973E-01
  1.0189633E+00   2.9495758E-01
  1.0289532E+00   2.9384655E-01
  1.0389430E+00   2.9273667E-01
  1.0489328E+00   2.9162798E-01
  1.0589227E+00   2.9052045E-01
  1.0689125E+00   2.8941411E-01
  1.0789023E+00   2.8824297E-01
 1.088892185762   2.8707140E-01
  1.0988820E+00   2.8590080E-01
  1.1088719E+00   2.8473124E-01
  1.1188617E+00   2.8356266E-01
  1.1288515E+00   2.8239510E-01
  1.1388414E+00   2.8116789E-01
  1.1488312E+00   2.7992303E-01
  1.1588210E+00   2.7867894E-01
  1.1688109E+00   2.7743559E-01
  1.1788007E+00   2.7619303E-01
  1.1887906E+00   2.7495122E-01
  1.1987804E+00   2.7371020E-01
  1.2087702E+00   2.7246998E-01
  1.2187601E+00   2.7123060E-01
  1.2287499E+00   2.6999205E-01
  1.2387397E+00   2.6875430E-01
  1.2487296E+00   2.6751332E-01
  1.2587194E+00   2.6621243E-01
  1.2687092E+00   2.6491202E-01
  1.2786991E+00   2.6361220E-01
  1.2886889E+00   2.6231284E-01
  1.2986788E+00   2.6101406E-01
  1.3086686E+00   2.5971582E-01
  1.3186584E+00   2.5841812E-01
  1.3286483E+00   2.5712100E-01
  1.3386381E+00   2.5582446E-01
  1.3486279E+00   2.5452848E-01
  1.3586178E+00   2.5323310E-01
  1.3686076E+00   2.5193833E-01
  1.3785974E+00   2.5062402E-01
  1.3885873E+00   2.4930256E-01
  1.3985771E+00   2.4798144E-01
  1.4085670E+00   2.4666067E-01
  1.4185568E+00   2.4534025E-01
  1.4285466E+00   2.4402022E-01
  1.4385365E+00   2.4270054E-01
  1.4485263E+00   2.4138127E-01
  1.4585161E+00   2.4006235E-01
  1.4685060E+00   2.3874384E-01
  1.4784958E+00   2.3742571E-01
  1.4884856E+00   2.3610800E-01
  1.4984755E+00   2.3479230E-01
  1.5084653E+00   2.3347936E-01
  1.5184552E+00   2.3216663E-01
  1.5284450E+00   2.3085415E-01
  1.5384348E+00   2.2954188E-01
  1.5484247E+00   2.2822986E-01
  1.5584145E+00   2.2691810E-01
  1.5684043E+00   2.2560655E-01
  1.5783942E+00   2.2429526E-01
  1.5883840E+00   2.2298422E-01
  1.5983739E+00   2.2167343E-01
  1.6083637E+00   2.2036293E-01
  1.6183535E+00   2.1905427E-01
  1.6283434E+00   2.1777264E-01
  1.6383332E+00   2.1649114E-01
  1.6483230E+00   2.1520979E-01
  1.6583129E+00   2.1392858E-01
  1.6683027E+00   2.1264753E-01
  1.6782925E+00   2.1136661E-01
  1.6882824E+00   2.1008585E-01
  1.6982722E+00   2.0880524E-01
  1.7082621E+00   2.0752478E-01
  1.7182519E+00   2.0624449E-01
  1.7282417E+00   2.0496438E-01
  1.7382316E+00   2.0368441E-01
  1.7482214E+00   2.0243787E-01
  1.7582112E+00   2.0120430E-01
  1.7682011E+00   1.9997081E-01
  1.7781909E+00   1.9873743E-01
  1.7881807E+00   1.9750412E-01
  1.7981706E+00   1.9627089E-01
  1.8081604E+00   1.9503777E-01
  1.8181503E+00   1.9380473E-01
  1.8281401E+00   1.9257178E-01
  1.8381299E+00   1.9133895E-01
  1.8481198E+00   1.9010619E-01
  1.8581096E+00   1.8887355E-01
  1.8680994E+00   1.8766340E-01
  1.8780893E+00   1.8648910E-01
  1.8880791E+00   1.8531483E-01
  1.8980689E+00   1.8414062E-01
  1.9080588E+00   1.8296647E-01
  1.9180486E+00   1.8179235E-01
  1.9280385E+00   1.8061830E-01
  1.9380283E+00   1.7944428E-01
  1.9480181E+00   1.7827034E-01
  1.9580080E+00   1.7709645E-01
  1.9679978E+00   1.7592262E-01
  1.9779876E+00   1.7474883E-01
  1.9879775E+00   1.7357836E-01
  1.9979673E+00   1.7247025E-01
  2.0079571E+00   1.7136217E-01
  2.0179470E+00   1.7025414E-01
  2.0279368E+00   1.6914609E-01
  2.0379267E+00   1.6803812E-01
  2.0479165E+00   1.6693016E-01
  2.0579063E+00   1.6582221E-01
  2.0678962E+00   1.6471432E-01
  2.0778860E+00   1.6360642E-01
  2.0878758E+00   1.6249860E-01
 2.097865678991   1.6139079E-01
  2.1078555E+00   1.6028300E-01
  2.1178454E+00   1.5922481E-01
  2.1278352E+00   1.5818645E-01
  2.1378250E+00   1.5714813E-01
  2.1478149E+00   1.5610983E-01
  2.1578047E+00   1.5507151E-01
  2.1677945E+00   1.5403324E-01
  2.1777844E+00   1.5299495E-01
  2.1877742E+00   1.5195671E-01
  2.1977640E+00   1.5091845E-01
  2.2077539E+00   1.4988023E-01
  2.2177437E+00   1.4884204E-01
  2.2277336E+00   1.4780383E-01
  2.2377234E+00   1.4679236E-01
  2.2477132E+00   1.4582467E-01
  2.2577031E+00   1.4485702E-01
  2.2676929E+00   1.4388936E-01
  2.2776827E+00   1.4292170E-01
  2.2876726E+00   1.4195406E-01
  2.2976624E+00   1.4098641E-01
  2.3076522E+00   1.4001880E-01
  2.3176421E+00   1.3905118E-01
  2.3276319E+00   1.3808356E-01
  2.3376218E+00   1.3711596E-01
  2.3476116E+00   1.3614835E-01
  2.3576014E+00   1.3518377E-01
  2.3675913E+00   1.3428581E-01
  2.3775811E+00   1.3338787E-01
  2.3875709E+00   1.3248993E-01
  2.3975608E+00   1.3159197E-01
  2.4075506E+00   1.3069404E-01
  2.4175404E+00   1.2979610E-01
  2.4275303E+00   1.2889817E-01
  2.4375201E+00   1.2800025E-01
  2.4475100E+00   1.2710232E-01
  2.4574998E+00   1.2620440E-01
  2.4674896E+00   1.2530648E-01
  2.4774795E+00   1.2440857E-01
  2.4874693E+00   1.2355832E-01
  2.4974591E+00   1.2272775E-01
  2.5074490E+00   1.2189720E-01
  2.5174388E+00   1.2106663E-01
  2.5274287E+00   1.2023608E-01
  2.5374185E+00   1.1940552E-01
  2.5474083E+00   1.1857498E-01
  2.5573982E+00   1.1774444E-01
  2.5673880E+00   1.1691388E-01
  2.5773778E+00   1.1608334E-01
  2.5873677E+00   1.1525279E-01
  2.5973575E+00   1.1442226E-01
  2.6073473E+00   1.1361561E-01
  2.6173372E+00   1.1284927E-01
  2.6273270E+00   1.1208295E-01
  2.6373169E+00   1.1131661E-01
  2.6473067E+00   1.1055030E-01
  2.6572965E+00   1.0978398E-01
  2.6672864E+00   1.0901765E-01
  2.6772762E+00   1.0825133E-01
  2.6872660E+00   1.0748501E-01
  2.6972559E+00   1.0671869E-01
  2.7072457E+00   1.0595236E-01
  2.7172355E+00   1.0518605E-01
  2.7272254E+00   1.0442194E-01
  2.7372152E+00   1.0371609E-01
  2.7472051E+00   1.0301025E-01
  2.7571949E+00   1.0230439E-01
  2.7671847E+00   1.0159856E-01
  2.7771746E+00   1.0089272E-01
  2.7871644E+00   1.0018686E-01
  2.7971542E+00   9.9481024E-02
  2.8071441E+00   9.8775172E-02
  2.8171339E+00   9.8069336E-02
  2.8271237E+00   9.7363501E-02
  2.8371136E+00   9.6657651E-02
  2.8471034E+00   9.5951817E-02
  2.8570933E+00   9.5285499E-02
  2.8670831E+00   9.4636074E-02
  2.8770729E+00   9.3986627E-02
  2.8870628E+00   9.3337203E-02
  2.8970526E+00   9.2687773E-02
  2.9070424E+00   9.2038327E-02
  2.9170323E+00   9.1388903E-02
  2.9270221E+00   9.0739457E-02
  2.9370120E+00   9.0090027E-02
  2.9470018E+00   8.9440605E-02
  2.9569916E+00   8.8791160E-02
  2.9669815E+00   8.8141738E-02
  2.9769713E+00   8.7511396E-02
  2.9869611E+00   8.6914237E-02
  2.9969510E+00   8.6317085E-02
  3.0069408E+00   8.5719911E-02
  3.0169306E+00   8.5122759E-02
  3.0269205E+00   8.4525585E-02
  3.0369103E+00   8.3928434E-02
  3.0469002E+00   8.3331276E-02
  3.0568900E+00   8.2734110E-02
  3.0668798E+00   8.2136953E-02
  3.0768697E+00   8.1539787E-02
  3.0868595E+00   8.0942637E-02
  3.0968493E+00   8.0346905E-02
  3.1068392E+00   7.9797861E-02
  3.1168290E+00   7.9248824E-02
  3.1268188E+00   7.8699772E-02
  3.1368087E+00   7.8150729E-02
  3.1467985E+00   7.7601678E-02
  3.1567884E+00   7.7052642E-02
  3.1667782E+00   7.6503600E-02
  3.1767680E+00   7.5954549E-02
 3.186757864753   7.5405515E-02
  3.1967477E+00   7.4856465E-02
  3.2067375E+00   7.4307424E-02
  3.2167274E+00   7.3758390E-02
  3.2267172E+00   7.3239931E-02
  3.2367070E+00   7.2734949E-02
  3.2466969E+00   7.2229952E-02
  3.2566867E+00   7.1724972E-02
  3.2666766E+00   7.1219976E-02
  3.2766664E+00   7.0714997E-02
  3.2866562E+00   7.0210010E-02
  3.2966461E+00   6.9705024E-02
  3.3066359E+00   6.9200046E-02
  3.3166257E+00   6.8695053E-02
  3.3266156E+00   6.8190076E-02
  3.3366054E+00   6.7685093E-02
  3.3465952E+00   6.7194531E-02
  3.3565851E+00   6.6729742E-02
  3.3665749E+00   6.6264947E-02
  3.3765648E+00   6.5800160E-02
  3.3865546E+00   6.5335375E-02
  3.3965444E+00   6.4870582E-02
  3.4065343E+00   6.4405799E-02
  3.4165241E+00   6.3941008E-02
  3.4265139E+00   6.3476227E-02
  3.4365038E+00   6.3011435E-02
  3.4464936E+00   6.2546659E-02
  3.4564835E+00   6.2081881E-02
  3.4664733E+00   6.1617944E-02
  3.4764631E+00   6.1189657E-02
  3.4864530E+00   6.0761361E-02
  3.4964428E+00   6.0333079E-02
  3.5064326E+00   5.9904798E-02
  3.5164225E+00   5.9476508E-02
  3.5264123E+00   5.9048227E-02
  3.5364021E+00   5.8619944E-02
  3.5463920E+00   5.8191667E-02
  3.5563818E+00   5.7763396E-02
  3.5663717E+00   5.7335115E-02
  3.5763615E+00   5.6906848E-02
  3.5863513E+00   5.6478572E-02
  3.5963412E+00   5.6073017E-02
  3.6063310E+00   5.5677764E-02
  3.6163208E+00   5.5282524E-02
  3.6263107E+00   5.4887288E-02
  3.6363005E+00   5.4492048E-02
  3.6462903E+00   5.4096819E-02
  3.6562802E+00   5.3701581E-02
  3.6662700E+00   5.3306358E-02
  3.6762599E+00   5.2911139E-02
  3.6862497E+00   5.2515915E-02
  3.6962395E+00   5.2120703E-02
  3.7062294E+00   5.1725483E-02
  3.7162192E+00   5.1340769E-02
  3.7262090E+00   5.0975357E-02
  3.7361989E+00   5.0609938E-02
  3.7461887E+00   5.0244532E-02
  3.7561785E+00   4.9879124E-02
  3.7661684E+00   4.9513729E-02
  3.7761582E+00   4.9148332E-02
  3.7861481E+00   4.8782952E-02
  3.7961379E+00   4.8417574E-02
  3.8061277E+00   4.8052194E-02
  3.8161176E+00   4.7686828E-02
  3.8261074E+00   4.7321461E-02
  3.8360972E+00   4.6956555E-02
  3.8460871E+00   4.6617973E-02
  3.8560769E+00   4.6279390E-02
  3.8660668E+00   4.5940824E-02
  3.8760566E+00   4.5602259E-02
  3.8860464E+00   4.5263714E-02
  3.8960363E+00   4.4925174E-02
  3.9060261E+00   4.4586635E-02
  3.9160159E+00   4.4248113E-02
  3.9260058E+00   4.3909594E-02
  3.9359956E+00   4.3571091E-02
  3.9459854E+00   4.3232591E-02
  3.9559753E+00   4.2894109E-02
  3.9659651E+00   4.2571948E-02
  3.9759550E+00   4.2257422E-02
  3.9859448E+00   4.1942919E-02
  3.9959346E+00   4.1628423E-02
  4.0059245E+00   4.1313952E-02
  4.0159143E+00   4.0999475E-02
  4.0259041E+00   4.0685028E-02
  4.0358940E+00   4.0370595E-02
  4.0458838E+00   4.0056174E-02
  4.0558736E+00   3.9741756E-02
  4.0658635E+00   3.9427369E-02
  4.0758533E+00   3.9112995E-02
  4.0858432E+00   3.8806022E-02
  4.0958330E+00   3.8513034E-02
  4.1058228E+00   3.8220054E-02
  4.1158127E+00   3.7927110E-02
  4.1258025E+00   3.7634186E-02
  4.1357923E+00   3.7341281E-02
  4.1457822E+00   3.7048400E-02
  4.1557720E+00   3.6755527E-02
  4.1657618E+00   3.6462691E-02
  4.1757517E+00   3.6169876E-02
  4.1857415E+00   3.5877088E-02
 4.195731357982   3.5584324E-02
  4.2057212E+00   3.5291761E-02
  4.2157110E+00   3.5017984E-02
  4.2257009E+00   3.4744234E-02
  4.2356907E+00   3.4470518E-02
  4.2456805E+00   3.4196833E-02
  4.2556704E+00   3.3923165E-02
  4.2656602E+00   3.3649544E-02
  4.2756501E+00   3.3375958E-02
  4.2856399E+00   3.3102402E-02
  4.2956297E+00   3.2828885E-02
  4.3056196E+00   3.2555392E-02
  4.3156094E+00   3.2281947E-02
  4.3255992E+00   3.2008542E-02
  4.3355891E+00   3.1746426E-02
  4.3455789E+00   3.1489787E-02
  4.3555687E+00   3.1233181E-02
  4.3655586E+00   3.0976632E-02
  4.3755484E+00   3.0720131E-02
  4.3855383E+00   3.0463682E-02
  4.3955281E+00   3.0207268E-02
  4.4055179E+00   2.9950920E-02
  4.4155078E+00   2.9694623E-02
  4.4254976E+00   2.9438381E-02
  4.4354874E+00   2.9182197E-02
  4.4454773E+00   2.8926056E-02
