# Version 1.0
# tree entry: B-Field (Ms)_Abs (X)

              0   4.7367880E-01
  9.9898366E-03   4.7394435E-01
  1.9979673E-02   4.7421230E-01
  2.9969510E-02   4.7448259E-01
  3.9959346E-02   4.7459579E-01
  4.9949183E-02   4.7470266E-01
  5.9939019E-02   4.7481183E-01
  6.9928856E-02   4.7492330E-01
  7.9918693E-02   4.7503707E-01
  8.9908529E-02   4.7515313E-01
  9.9898366E-02   4.7513038E-01
  1.0988820E-01   4.7508408E-01
  1.1987804E-01   4.7503997E-01
  1.2986788E-01   4.7499812E-01
  1.3985771E-01   4.7495850E-01
  1.4984755E-01   4.7492111E-01
  1.5983739E-01   4.7476342E-01
  1.6982722E-01   4.7456544E-01
  1.7981706E-01   4.7436962E-01
  1.8980689E-01   4.7417593E-01
  1.9979673E-01   4.7398443E-01
  2.0978657E-01   4.7379509E-01
  2.1977640E-01   4.7350411E-01
  2.2976624E-01   4.7315675E-01
  2.3975608E-01   4.7281146E-01
  2.4974591E-01   4.7246823E-01
  2.5973575E-01   4.7212711E-01
  2.6972559E-01   4.7178809E-01
  2.7971542E-01   4.7136602E-01
  2.8970526E-01   4.7087244E-01
  2.9969510E-01   4.7038085E-01
  3.0968493E-01   4.6989129E-01
  3.1967477E-01   4.6940372E-01
  3.2966461E-01   4.6891816E-01
  3.3965444E-01   4.6836780E-01
  3.4964428E-01   4.6773206E-01
  3.5963412E-01   4.6709821E-01
  3.6962395E-01   4.6646631E-01
  3.7961379E-01   4.6583631E-01
  3.8960363E-01   4.6520827E-01
  3.9959346E-01   4.6453298E-01
  4.0958330E-01   4.6375994E-01
  4.1957314E-01   4.6298875E-01
  4.2956297E-01   4.6221936E-01
  4.3955281E-01   4.6145185E-01
  4.4954265E-01   4.6068619E-01
  4.5953248E-01   4.5988994E-01
  4.6952232E-01   4.5898546E-01
  4.7951216E-01   4.5808269E-01
  4.8950199E-01   4.5718169E-01
  4.9949183E-01   4.5628242E-01
  5.0948166E-01   4.5538491E-01
  5.1947150E-01   4.5447233E-01
  5.2946134E-01   4.5344303E-01
  5.3945117E-01   4.5241537E-01
  5.4944101E-01   4.5138935E-01
  5.5943085E-01   4.5036499E-01
  5.6942068E-01   4.4934227E-01
  5.7941052E-01   4.4831853E-01
  5.8940036E-01   4.4717197E-01
  5.9939019E-01   4.4602691E-01
  6.0938003E-01   4.4488342E-01
  6.1936987E-01   4.4374149E-01
  6.2935970E-01   4.4260113E-01
  6.3934954E-01   4.4146235E-01
  6.4933938E-01   4.4021646E-01
  6.5932921E-01   4.3896239E-01
  6.6931905E-01   4.3770973E-01
  6.7930889E-01   4.3645855E-01
  6.8929872E-01   4.3520883E-01
  6.9928856E-01   4.3396059E-01
  7.0927840E-01   4.3262521E-01
  7.1926823E-01   4.3127117E-01
  7.2925807E-01   4.2991850E-01
  7.3924791E-01   4.2856713E-01
  7.4923774E-01   4.2721712E-01
  7.5922758E-01   4.2586847E-01
  7.6921742E-01   4.2445122E-01
  7.7920725E-01   4.2300699E-01
  7.8919709E-01   4.2156398E-01
  7.9918693E-01   4.2012217E-01
  8.0917676E-01   4.1868163E-01
  8.1916660E-01   4.1724233E-01
  8.2915644E-01   4.1575106E-01
  8.3914627E-01   4.1422683E-01
  8.4913611E-01   4.1270370E-01
  8.5912594E-01   4.1118169E-01
  8.6911578E-01   4.0966082E-01
  8.7910562E-01   4.0814107E-01
  8.8909545E-01   4.0658392E-01
  8.9908529E-01   4.0499030E-01
  9.0907513E-01   4.0339767E-01
  9.1906496E-01   4.0180603E-01
  9.2905480E-01   4.0021540E-01
  9.3904464E-01   3.9862579E-01
  9.4903447E-01   3.9701095E-01
  9.5902431E-01   3.9535818E-01
  9.6901415E-01   3.9370631E-01
  9.7900398E-01   3.9205532E-01
  9.8899382E-01   3.9040523E-01
  9.9898366E-01   3.8875605E-01
  1.0089735E+00   3.8709752E-01
  1.0189633E+00   3.8539628E-01
  1.0289532E+00   3.8369583E-01
  1.0389430E+00   3.8199612E-01
  1.0489328E+00   3.8029725E-01
  1.0589227E+00   3.7859912E-01
  1.0689125E+00   3.7690183E-01
  1.0789023E+00   3.7516416E-01
 1.088892185762   3.7342620E-01
  1.0988820E+00   3.7168891E-01
  1.1088719E+00   3.6995231E-01
  1.1188617E+00   3.6821639E-01
  1.1288515E+00   3.6648116E-01
  1.1388414E+00   3.6471330E-01
  1.1488312E+00   3.6293573E-01
  1.1588210E+00   3.6115867E-01
  1.1688109E+00   3.5938210E-01
  1.1788007E+00   3.5760606E-01
  1.1887906E+00   3.5583056E-01
  1.1987804E+00   3.5405561E-01
  1.2087702E+00   3.5228124E-01
  1.2187601E+00   3.5050744E-01
  1.2287499E+00   3.4873418E-01
  1.2387397E+00   3.4696150E-01
  1.2487296E+00   3.4518583E-01
  1.2587194E+00   3.4339307E-01
  1.2687092E+00   3.4160070E-01
  1.2786991E+00   3.3980872E-01
  1.2886889E+00   3.3801706E-01
  1.2986788E+00   3.3622580E-01
  1.3086686E+00   3.3443494E-01
  1.3186584E+00  0.332644429585
  1.3286483E+00   3.3085438E-01
  1.3386381E+00   3.2906470E-01
  1.3486279E+00   3.2727541E-01
  1.3586178E+00   3.2548656E-01
  1.3686076E+00   3.2369814E-01
  1.3785974E+00   3.2192150E-01
  1.3885873E+00   3.2014746E-01
  1.3985771E+00   3.1837363E-01
  1.4085670E+00   3.1660005E-01
  1.4185568E+00   3.1482672E-01
  1.4285466E+00   3.1305366E-01
  1.4385365E+00   3.1128088E-01
  1.4485263E+00   3.0950838E-01
  1.4585161E+00   3.0773611E-01
  1.4685060E+00   3.0596412E-01
  1.4784958E+00   3.0419242E-01
  1.4884856E+00   3.0242100E-01
  1.4984755E+00   3.0067063E-01
  1.5084653E+00   2.9894183E-01
  1.5184552E+00   2.9721318E-01
  1.5284450E+00   2.9548469E-01
  1.5384348E+00   2.9375637E-01
  1.5484247E+00   2.9202821E-01
  1.5584145E+00   2.9030022E-01
  1.5684043E+00   2.8857240E-01
  1.5783942E+00   2.8684476E-01
  1.5883840E+00   2.8511729E-01
  1.5983739E+00   2.8339001E-01
  1.6083637E+00   2.8166292E-01
  1.6183535E+00   2.7994573E-01
  1.6283434E+00   2.7828239E-01
  1.6383332E+00   2.7661918E-01
  1.6483230E+00   2.7495607E-01
  1.6583129E+00   2.7329306E-01
  1.6683027E+00   2.7163018E-01
  1.6782925E+00   2.6996737E-01
  1.6882824E+00   2.6830467E-01
  1.6982722E+00   2.6664205E-01
  1.7082621E+00   2.6497956E-01
  1.7182519E+00   2.6331719E-01
  1.7282417E+00   2.6165497E-01
  1.7382316E+00   2.5999282E-01
  1.7482214E+00   2.5839442E-01
  1.7582112E+00   2.5681061E-01
  1.7682011E+00   2.5522688E-01
  1.7781909E+00   2.5364323E-01
  1.7881807E+00   2.5205961E-01
  1.7981706E+00   2.5047606E-01
  1.8081604E+00   2.4889257E-01
  1.8181503E+00   2.4730915E-01
  1.8281401E+00   2.4572579E-01
  1.8381299E+00   2.4414251E-01
  1.8481198E+00   2.4255928E-01
  1.8581096E+00   2.4097612E-01
  1.8680994E+00   2.3943455E-01
  1.8780893E+00   2.3793899E-01
  1.8880791E+00   2.3644345E-01
  1.8980689E+00   2.3494795E-01
  1.9080588E+00   2.3345249E-01
  1.9180486E+00   2.3195704E-01
  1.9280385E+00   2.3046164E-01
  1.9380283E+00   2.2896627E-01
  1.9480181E+00   2.2747096E-01
  1.9580080E+00   2.2597567E-01
  1.9679978E+00   2.2448041E-01
  1.9779876E+00   2.2298520E-01
  1.9879775E+00   2.2150253E-01
  1.9979673E+00   2.2009965E-01
  2.0079571E+00   2.1869680E-01
  2.0179470E+00   2.1729397E-01
  2.0279368E+00   2.1589112E-01
  2.0379267E+00   2.1448833E-01
  2.0479165E+00   2.1308557E-01
  2.0579063E+00   2.1168278E-01
  2.0678962E+00   2.1028004E-01
  2.0778860E+00   2.0887729E-01
  2.0878758E+00   2.0747459E-01
 2.097865678991   2.0607193E-01
  2.1078555E+00   2.0466925E-01
  2.1178454E+00   2.0334121E-01
  2.1278352E+00   2.0203221E-01
  2.1378250E+00   2.0072325E-01
  2.1478149E+00   1.9941428E-01
  2.1578047E+00   1.9810531E-01
  2.1677945E+00   1.9679638E-01
  2.1777844E+00   1.9548742E-01
  2.1877742E+00   1.9417851E-01
  2.1977640E+00   1.9286958E-01
  2.2077539E+00   1.9156068E-01
  2.2177437E+00   1.9025179E-01
  2.2277336E+00   1.8894288E-01
  2.2377234E+00   1.8767636E-01
  2.2477132E+00   1.8646000E-01
  2.2577031E+00   1.8524369E-01
  2.2676929E+00   1.8402737E-01
  2.2776827E+00   1.8281104E-01
  2.2876726E+00   1.8159472E-01
  2.2976624E+00   1.8037840E-01
  2.3076522E+00   1.7916210E-01
  2.3176421E+00   1.7794582E-01
  2.3276319E+00   1.7672951E-01
  2.3376218E+00   1.7551322E-01
  2.3476116E+00   1.7429692E-01
  2.3576014E+00   1.7309125E-01
  2.3675913E+00   1.7196455E-01
  2.3775811E+00   1.7083789E-01
  2.3875709E+00   1.6971122E-01
  2.3975608E+00   1.6858454E-01
  2.4075506E+00   1.6745788E-01
  2.4175404E+00   1.6633120E-01
  2.4275303E+00   1.6520454E-01
  2.4375201E+00   1.6407789E-01
  2.4475100E+00   1.6295122E-01
  2.4574998E+00   1.6182457E-01
  2.4674896E+00   1.6069790E-01
  2.4774795E+00   1.5957125E-01
  2.4874693E+00   1.5851123E-01
  2.4974591E+00   1.5747006E-01
  2.5074490E+00   1.5642891E-01
  2.5174388E+00   1.5538774E-01
  2.5274287E+00   1.5434659E-01
  2.5374185E+00   1.5330542E-01
  2.5474083E+00   1.5226428E-01
  2.5573982E+00   1.5122314E-01
  2.5673880E+00   1.5018197E-01
  2.5773778E+00   1.4914083E-01
  2.5873677E+00   1.4809968E-01
  2.5973575E+00   1.4705854E-01
  2.6073473E+00   1.4605288E-01
  2.6173372E+00   1.4509234E-01
  2.6273270E+00   1.4413183E-01
  2.6373169E+00   1.4317128E-01
  2.6473067E+00   1.4221077E-01
  2.6572965E+00   1.4125024E-01
  2.6672864E+00   1.4028972E-01
  2.6772762E+00   1.3932919E-01
  2.6872660E+00   1.3836867E-01
  2.6972559E+00   1.3740814E-01
  2.7072457E+00   1.3644762E-01
  2.7172355E+00   1.3548709E-01
  2.7272254E+00   1.3453419E-01
  2.7372152E+00   1.3364899E-01
  2.7472051E+00   1.3276381E-01
  2.7571949E+00   1.3187860E-01
  2.7671847E+00   1.3099342E-01
  2.7771746E+00   1.3010824E-01
  2.7871644E+00   1.2922304E-01
  2.7971542E+00   1.2833786E-01
  2.8071441E+00   1.2745266E-01
  2.8171339E+00   1.2656748E-01
  2.8271237E+00   1.2568230E-01
  2.8371136E+00   1.2479710E-01
  2.8471034E+00   1.2391192E-01
  2.8570933E+00   1.2307996E-01
  2.8670831E+00   1.2226466E-01
  2.8770729E+00   1.2144934E-01
  2.8870628E+00   1.2063405E-01
  2.8970526E+00   1.1981875E-01
  2.9070424E+00   1.1900343E-01
  2.9170323E+00   1.1818813E-01
  2.9270221E+00   1.1737281E-01
  2.9370120E+00   1.1655751E-01
  2.9470018E+00   1.1574221E-01
  2.9569916E+00   1.1492690E-01
  2.9669815E+00   1.1411160E-01
  2.9769713E+00   1.1332353E-01
  2.9869611E+00   1.1257269E-01
  2.9969510E+00   1.1182183E-01
  3.0069408E+00   1.1107097E-01
  3.0169306E+00   1.1032012E-01
  3.0269205E+00   1.0956926E-01
  3.0369103E+00   1.0881841E-01
  3.0469002E+00   1.0806756E-01
  3.0568900E+00   1.0731670E-01
  3.0668798E+00   1.0656585E-01
  3.0768697E+00   1.0581498E-01
  3.0868595E+00   1.0506414E-01
  3.0968493E+00   1.0431822E-01
  3.1068392E+00   1.0362650E-01
  3.1168290E+00   1.0293477E-01
  3.1268188E+00   1.0224303E-01
  3.1368087E+00   1.0155130E-01
  3.1467985E+00   1.0085956E-01
  3.1567884E+00   1.0016785E-01
  3.1667782E+00   9.9476124E-02
  3.1767680E+00   9.8784385E-02
 3.186757864753   9.8092662E-02
  3.1967477E+00   9.7400924E-02
  3.2067375E+00   9.6709209E-02
  3.2167274E+00   9.6017488E-02
  3.2267172E+00   9.5365968E-02
  3.2367070E+00   9.4728267E-02
  3.2466969E+00   9.4090551E-02
  3.2566867E+00   9.3452852E-02
  3.2666766E+00   9.2815138E-02
  3.2766664E+00   9.2177441E-02
  3.2866562E+00   9.1539745E-02
  3.2966461E+00   9.0902034E-02
  3.3066359E+00   9.0264340E-02
  3.3166257E+00   8.9626631E-02
  3.3266156E+00   8.8988939E-02
  3.3366054E+00   8.8351248E-02
  3.3465952E+00   8.7733475E-02
  3.3565851E+00   8.7144964E-02
  3.3665749E+00   8.6556440E-02
  3.3765648E+00   8.5967933E-02
  3.3865546E+00   8.5379427E-02
  3.3965444E+00   8.4790908E-02
  3.4065343E+00   8.4202406E-02
  3.4165241E+00   8.3613891E-02
  3.4265139E+00   8.3025393E-02
  3.4365038E+00   8.2436882E-02
  3.4464936E+00   8.1848388E-02
  3.4564835E+00   8.1259896E-02
  3.4664733E+00   8.0674347E-02
  3.4764631E+00   8.0130463E-02
  3.4864530E+00   7.9586567E-02
  3.4964428E+00   7.9042689E-02
  3.5064326E+00   7.8498815E-02
  3.5164225E+00   7.7954929E-02
  3.5264123E+00   7.7411068E-02
  3.5364021E+00   7.6867188E-02
  3.5463920E+00   7.6323328E-02
  3.5563818E+00   7.5779470E-02
  3.5663717E+00   7.5235601E-02
  3.5763615E+00   7.4691751E-02
  3.5863513E+00   7.4147896E-02
  3.5963412E+00   7.3633381E-02
  3.6063310E+00   7.3129860E-02
  3.6163208E+00   7.2626366E-02
  3.6263107E+00   7.2122870E-02
  3.6363005E+00   7.1619365E-02
  3.6462903E+00   7.1115880E-02
  3.6562802E+00   7.0612394E-02
  3.6662700E+00   7.0108921E-02
  3.6762599E+00   6.9605454E-02
  3.6862497E+00   6.9101985E-02
  3.6962395E+00   6.8598530E-02
  3.7062294E+00   6.8095074E-02
  3.7162192E+00   6.7605739E-02
  3.7262090E+00   6.7138674E-02
  3.7361989E+00   6.6671602E-02
  3.7461887E+00   6.6204547E-02
  3.7561785E+00   6.5737492E-02
  3.7661684E+00   6.5270461E-02
  3.7761582E+00   6.4803425E-02
  3.7861481E+00   6.4336410E-02
  3.7961379E+00   6.3869404E-02
  3.8061277E+00   6.3402396E-02
  3.8161176E+00   6.2935410E-02
  3.8261074E+00   6.2468423E-02
  3.8360972E+00   6.2003060E-02
  3.8460871E+00   6.1568773E-02
  3.8560769E+00  0.061134490887
  3.8660668E+00   6.0700234E-02
  3.8760566E+00   6.0265980E-02
  3.8860464E+00   5.9831751E-02
  3.8960363E+00   5.9397532E-02
  3.9060261E+00   5.8963321E-02
  3.9160159E+00   5.8529136E-02
  3.9260058E+00   5.8094955E-02
  3.9359956E+00   5.7660801E-02
  3.9459854E+00   5.7226652E-02
  3.9559753E+00   5.6792527E-02
  3.9659651E+00   5.6379174E-02
  3.9759550E+00   5.5974308E-02
  3.9859448E+00   5.5569478E-02
  3.9959346E+00   5.5164656E-02
  4.0059245E+00   5.4759876E-02
  4.0159143E+00   5.4355090E-02
  4.0259041E+00   5.3950343E-02
  4.0358940E+00   5.3545618E-02
  4.0458838E+00   5.3140920E-02
  4.0558736E+00   5.2736224E-02
  4.0658635E+00   5.2331574E-02
  4.0758533E+00   5.1926950E-02
  4.0858432E+00   5.1532005E-02
  4.0958330E+00   5.1153493E-02
  4.1058228E+00   5.0774992E-02
  4.1158127E+00   5.0396538E-02
  4.1258025E+00   5.0018119E-02
  4.1357923E+00   4.9639730E-02
  4.1457822E+00   4.9261377E-02
  4.1557720E+00   4.8883040E-02
  4.1657618E+00   4.8504753E-02
  4.1757517E+00   4.8126506E-02
  4.1857415E+00   4.7748292E-02
 4.195731357982   4.7370119E-02
  4.2057212E+00   4.6992695E-02
  4.2157110E+00   4.6637708E-02
  4.2257009E+00   4.6282766E-02
  4.2356907E+00   4.5927874E-02
  4.2456805E+00   4.5573025E-02
  4.2556704E+00   4.5218209E-02
  4.2656602E+00   4.4863458E-02
  4.2756501E+00   4.4508758E-02
  4.2856399E+00   4.4154109E-02
  4.2956297E+00   4.3799514E-02
  4.3056196E+00   4.3444957E-02
  4.3156094E+00   4.3090472E-02
  4.3255992E+00   4.2736044E-02
  4.3355891E+00   4.2395789E-02
  4.3455789E+00   4.2061861E-02
  4.3555687E+00   4.1727986E-02
  4.3655586E+00   4.1394199E-02
  4.3755484E+00   4.1060480E-02
  4.3855383E+00   4.0726836E-02
  4.3955281E+00   4.0393248E-02
  4.4055179E+00   4.0059752E-02
  4.4155078E+00   3.9726337E-02
  4.4254976E+00   3.9392999E-02
  4.4354874E+00   3.9059743E-02
  4.4454773E+00   3.8726560E-02
