# Version 1.0
# tree entry: B-Field (Ms)_Abs (X)

              0   5.2892130E-01
  9.9898366E-03   5.2895302E-01
  1.9979673E-02   5.2898662E-01
  2.9969510E-02   5.2886274E-01
  3.9959346E-02   5.2874029E-01
  4.9949183E-02   5.2861964E-01
  5.9939019E-02   5.2850083E-01
  6.9928856E-02   5.2838376E-01
  7.9918693E-02   5.2826848E-01
  8.9908529E-02   5.2802395E-01
  9.9898366E-02   5.2775342E-01
  1.0988820E-01   5.2748466E-01
  1.1987804E-01   5.2721767E-01
  1.2986788E-01   5.2695240E-01
  1.3985771E-01   5.2668895E-01
  1.4984755E-01   5.2632476E-01
  1.5983739E-01   5.2590763E-01
  1.6982722E-01   5.2549218E-01
  1.7981706E-01   5.2507852E-01
  1.8980689E-01   5.2466656E-01
  1.9979673E-01   5.2425640E-01
  2.0978657E-01   5.2377379E-01
  2.1977640E-01   5.2321228E-01
  2.2976624E-01   5.2265247E-01
  2.3975608E-01   5.2209443E-01
  2.4974591E-01   5.2153803E-01
  2.5973575E-01   5.2098336E-01
  2.6972559E-01   5.2038405E-01
  2.7971542E-01   5.1968131E-01
  2.8970526E-01   5.1898023E-01
  2.9969510E-01   5.1828080E-01
  3.0968493E-01   5.1758305E-01
  3.1967477E-01   5.1688698E-01
  3.2966461E-01   5.1617299E-01
  3.3965444E-01   5.1533298E-01
  3.4964428E-01   5.1449458E-01
  3.5963412E-01   5.1365785E-01
  3.6962395E-01   5.1282268E-01
  3.7961379E-01   5.1198913E-01
  3.8960363E-01   5.1115722E-01
  3.9959346E-01   5.1019044E-01
  4.0958330E-01   5.0921955E-01
  4.1957314E-01   5.0825027E-01
  4.2956297E-01   5.0728249E-01
  4.3955281E-01   5.0631628E-01
  4.4954265E-01   5.0535166E-01
  4.5953248E-01   5.0428147E-01
  4.6952232E-01   5.0318385E-01
  4.7951216E-01   5.0208775E-01
  4.8950199E-01   5.0099312E-01
  4.9949183E-01   4.9990000E-01
  5.0948166E-01   4.9880839E-01
  5.1947150E-01   4.9763892E-01
  5.2946134E-01   4.9642107E-01
  5.3945117E-01   4.9520460E-01
  5.4944101E-01   4.9398960E-01
  5.5943085E-01   4.9277602E-01
  5.6942068E-01   4.9156390E-01
  5.7941052E-01   4.9029966E-01
  5.8940036E-01   4.8896901E-01
  5.9939019E-01   4.8763973E-01
  6.0938003E-01   4.8631179E-01
  6.1936987E-01   4.8498518E-01
  6.2935970E-01   4.8365997E-01
  6.3934954E-01   4.8230588E-01
  6.4933938E-01   4.8087072E-01
  6.5932921E-01   4.7943682E-01
  6.6931905E-01   4.7800417E-01
  6.7930889E-01   4.7657279E-01
  6.8929872E-01   4.7514269E-01
  6.9928856E-01   4.7370403E-01
  7.0927840E-01   4.7217334E-01
  7.1926823E-01   4.7064382E-01
  7.2925807E-01   4.6911545E-01
  7.3924791E-01   4.6758828E-01
  7.4923774E-01   4.6606228E-01
  7.5922758E-01   4.6453748E-01
  7.6921742E-01   4.6292821E-01
  7.7920725E-01   4.6131284E-01
  7.8919709E-01   4.5969850E-01
  7.9918693E-01   4.5808528E-01
  8.0917676E-01   4.5647315E-01
  8.1916660E-01   4.5486210E-01
  8.2915644E-01   4.5319062E-01
  8.3914627E-01   4.5149961E-01
  8.4913611E-01   4.4980955E-01
  8.5912594E-01   4.4812048E-01
  8.6911578E-01   4.4643239E-01
  8.7910562E-01   4.4474532E-01
  8.8909545E-01   4.4301840E-01
  8.9908529E-01   4.4126234E-01
  9.0907513E-01   4.3950718E-01
  9.1906496E-01   4.3775290E-01
  9.2905480E-01   4.3599951E-01
  9.3904464E-01   4.3424703E-01
  9.4903447E-01   4.3247137E-01
  9.5902431E-01   4.3066100E-01
  9.6901415E-01   4.2885141E-01
  9.7900398E-01   4.2704259E-01
  9.8899382E-01   4.2523457E-01
  9.9898366E-01   4.2342735E-01
  1.0089735E+00   4.2161179E-01
  1.0189633E+00   4.1975798E-01
  1.0289532E+00   4.1790484E-01
  1.0389430E+00   4.1605239E-01
  1.0489328E+00   4.1420063E-01
  1.0589227E+00   4.1234958E-01
  1.0689125E+00   4.1049924E-01
  1.0789023E+00   4.0861378E-01
 1.088892185762   4.0672808E-01
  1.0988820E+00   4.0484295E-01
  1.1088719E+00   4.0295847E-01
  1.1188617E+00   4.0107455E-01
  1.1288515E+00   3.9919127E-01
  1.1388414E+00   3.9728095E-01
  1.1488312E+00   3.9536258E-01
  1.1588210E+00   3.9344469E-01
  1.1688109E+00   3.9152726E-01
  1.1788007E+00   3.8961027E-01
  1.1887906E+00   3.8769376E-01
  1.1987804E+00   3.8577772E-01
  1.2087702E+00   3.8386221E-01
  1.2187601E+00   3.8194719E-01
  1.2287499E+00   3.8003264E-01
  1.2387397E+00   3.7811861E-01
  1.2487296E+00   3.7620311E-01
  1.2587194E+00   3.7427824E-01
  1.2687092E+00   3.7235370E-01
  1.2786991E+00   3.7042949E-01
  1.2886889E+00   3.6850561E-01
  1.2986788E+00   3.6658203E-01
  1.3086686E+00   3.6465878E-01
  1.3186584E+00   3.6273590E-01
  1.3286483E+00   3.6081337E-01
  1.3386381E+00   3.5889120E-01
  1.3486279E+00   3.5696935E-01
  1.3586178E+00   3.5504787E-01
  1.3686076E+00   3.5312679E-01
  1.3785974E+00   3.5122492E-01
  1.3885873E+00   3.4932714E-01
  1.3985771E+00   3.4742953E-01
  1.4085670E+00   3.4553214E-01
  1.4185568E+00   3.4363500E-01
  1.4285466E+00   3.4173805E-01
  1.4385365E+00   3.3984132E-01
  1.4485263E+00   3.3794486E-01
  1.4585161E+00   3.3604863E-01
  1.4685060E+00   3.3415261E-01
  1.4784958E+00   3.3225683E-01
  1.4884856E+00   3.3036130E-01
  1.4984755E+00   3.2849093E-01
  1.5084653E+00   3.2664636E-01
  1.5184552E+00   3.2480193E-01
  1.5284450E+00   3.2295762E-01
  1.5384348E+00   3.2111346E-01
  1.5484247E+00   3.1926943E-01
  1.5584145E+00   3.1742558E-01
  1.5684043E+00   3.1558184E-01
  1.5783942E+00   3.1373824E-01
  1.5883840E+00   3.1189480E-01
  1.5983739E+00   3.1005151E-01
  1.6083637E+00   3.0820841E-01
  1.6183535E+00   3.0637633E-01
  1.6283434E+00   3.0460482E-01
  1.6383332E+00   3.0283335E-01
  1.6483230E+00   3.0106199E-01
  1.6583129E+00   2.9929069E-01
  1.6683027E+00   2.9751950E-01
  1.6782925E+00   2.9574836E-01
  1.6882824E+00   2.9397734E-01
  1.6982722E+00   2.9220638E-01
  1.7082621E+00   2.9043551E-01
  1.7182519E+00   2.8866475E-01
  1.7282417E+00   2.8689409E-01
  1.7382316E+00   2.8512350E-01
  1.7482214E+00   2.8342261E-01
  1.7582112E+00   2.8173764E-01
  1.7682011E+00   2.8005275E-01
  1.7781909E+00   2.7836794E-01
  1.7881807E+00   2.7668314E-01
  1.7981706E+00   2.7499836E-01
  1.8081604E+00   2.7331366E-01
  1.8181503E+00   2.7162900E-01
  1.8281401E+00   2.6994440E-01
  1.8381299E+00   2.6825985E-01
  1.8481198E+00   2.6657535E-01
  1.8581096E+00   2.6489090E-01
  1.8680994E+00   2.6325124E-01
  1.8780893E+00   2.6166114E-01
  1.8880791E+00   2.6007104E-01
  1.8980689E+00   2.5848100E-01
  1.9080588E+00   2.5689094E-01
  1.9180486E+00   2.5530091E-01
  1.9280385E+00   2.5371093E-01
  1.9380283E+00   2.5212096E-01
  1.9480181E+00   2.5053103E-01
  1.9580080E+00   2.4894112E-01
  1.9679978E+00   2.4735122E-01
  1.9779876E+00   2.4576136E-01
  1.9879775E+00   2.4418489E-01
  1.9979673E+00   2.4269362E-01
  2.0079571E+00   2.4120235E-01
  2.0179470E+00   2.3971111E-01
  2.0279368E+00   2.3821983E-01
  2.0379267E+00   2.3672862E-01
  2.0479165E+00   2.3523741E-01
  2.0579063E+00   2.3374619E-01
  2.0678962E+00   2.3225501E-01
  2.0778860E+00   2.3076381E-01
  2.0878758E+00   2.2927265E-01
 2.097865678991   2.2778151E-01
  2.1078555E+00   2.2629035E-01
  2.1178454E+00   2.2487846E-01
  2.1278352E+00   2.2348676E-01
  2.1378250E+00   2.2209511E-01
  2.1478149E+00   2.2070347E-01
  2.1578047E+00   2.1931180E-01
  2.1677945E+00   2.1792017E-01
  2.1777844E+00   2.1652850E-01
  2.1877742E+00   2.1513689E-01
  2.1977640E+00   2.1374523E-01
  2.2077539E+00   2.1235361E-01
  2.2177437E+00   2.1096201E-01
  2.2277336E+00   2.0957037E-01
  2.2377234E+00   2.0822354E-01
  2.2477132E+00   2.0692979E-01
  2.2577031E+00   2.0563608E-01
  2.2676929E+00   2.0434237E-01
  2.2776827E+00   2.0304862E-01
  2.2876726E+00   2.0175490E-01
  2.2976624E+00   2.0046116E-01
  2.3076522E+00   1.9916745E-01
  2.3176421E+00   1.9787374E-01
  2.3276319E+00   1.9658001E-01
  2.3376218E+00   1.9528631E-01
  2.3476116E+00   1.9399257E-01
  2.3576014E+00   1.9271006E-01
  2.3675913E+00   1.9151086E-01
  2.3775811E+00   1.9031169E-01
  2.3875709E+00   1.8911253E-01
  2.3975608E+00   1.8791333E-01
  2.4075506E+00   1.8671417E-01
  2.4175404E+00   1.8551497E-01
  2.4275303E+00   1.8431579E-01
  2.4375201E+00   1.8311663E-01
  2.4475100E+00   1.8191743E-01
  2.4574998E+00   1.8071827E-01
  2.4674896E+00   1.7951907E-01
  2.4774795E+00   1.7831991E-01
  2.4874693E+00   1.7719091E-01
  2.4974591E+00   1.7608176E-01
  2.5074490E+00   1.7497264E-01
  2.5174388E+00   1.7386349E-01
  2.5274287E+00   1.7275437E-01
  2.5374185E+00   1.7164522E-01
  2.5474083E+00   1.7053610E-01
  2.5573982E+00   1.6942698E-01
  2.5673880E+00   1.6831783E-01
  2.5773778E+00   1.6720871E-01
  2.5873677E+00   1.6609956E-01
  2.5973575E+00   1.6499044E-01
  2.6073473E+00   1.6391864E-01
  2.6173372E+00   1.6289429E-01
  2.6273270E+00   1.6186998E-01
  2.6373169E+00   1.6084563E-01
  2.6473067E+00   1.5982131E-01
  2.6572965E+00   1.5879699E-01
  2.6672864E+00   1.5777266E-01
  2.6772762E+00   1.5674834E-01
  2.6872660E+00   1.5572399E-01
  2.6972559E+00   1.5469968E-01
  2.7072457E+00   1.5367533E-01
  2.7172355E+00   1.5265102E-01
  2.7272254E+00   1.5163469E-01
  2.7372152E+00   1.5068957E-01
  2.7472051E+00   1.4974449E-01
  2.7571949E+00   1.4879937E-01
  2.7671847E+00   1.4785427E-01
  2.7771746E+00   1.4690919E-01
  2.7871644E+00   1.4596406E-01
  2.7971542E+00   1.4501897E-01
  2.8071441E+00   1.4407386E-01
  2.8171339E+00   1.4312876E-01
  2.8271237E+00   1.4218367E-01
  2.8371136E+00   1.4123856E-01
  2.8471034E+00   1.4029346E-01
  2.8570933E+00   1.3940432E-01
  2.8670831E+00   1.3853270E-01
  2.8770729E+00   1.3766106E-01
  2.8870628E+00   1.3678944E-01
  2.8970526E+00   1.3591781E-01
  2.9070424E+00   1.3504616E-01
  2.9170323E+00   1.3417454E-01
  2.9270221E+00   1.3330290E-01
  2.9370120E+00   1.3243128E-01
  2.9470018E+00   1.3155966E-01
  2.9569916E+00   1.3068802E-01
  2.9669815E+00   1.2981640E-01
  2.9769713E+00   1.2897339E-01
  2.9869611E+00   1.2816952E-01
  2.9969510E+00   1.2736565E-01
  3.0069408E+00   1.2656175E-01
  3.0169306E+00   1.2575788E-01
  3.0269205E+00   1.2495399E-01
  3.0369103E+00   1.2415011E-01
  3.0469002E+00   1.2334624E-01
  3.0568900E+00   1.2254235E-01
  3.0668798E+00   1.2173847E-01
  3.0768697E+00   1.2093458E-01
  3.0868595E+00   1.2013070E-01
  3.0968493E+00   1.1933201E-01
  3.1068392E+00   1.1859035E-01
  3.1168290E+00   1.1784869E-01
  3.1268188E+00   1.1710701E-01
  3.1368087E+00   1.1636535E-01
  3.1467985E+00   1.1562368E-01
  3.1567884E+00   1.1488202E-01
  3.1667782E+00   1.1414035E-01
  3.1767680E+00   1.1339868E-01
 3.186757864753   1.1265702E-01
  3.1967477E+00   1.1191534E-01
  3.2067375E+00   1.1117368E-01
  3.2167274E+00   1.1043202E-01
  3.2267172E+00   1.0973270E-01
  3.2367070E+00   1.0904793E-01
  3.2466969E+00   1.0836314E-01
  3.2566867E+00   1.0767838E-01
  3.2666766E+00   1.0699360E-01
  3.2766664E+00   1.0630883E-01
  3.2866562E+00   1.0562406E-01
  3.2966461E+00   1.0493927E-01
  3.3066359E+00   1.0425451E-01
  3.3166257E+00   1.0356972E-01
  3.3266156E+00   1.0288496E-01
  3.3366054E+00   1.0220019E-01
  3.3465952E+00   1.0153641E-01
  3.3565851E+00   1.0090348E-01
  3.3665749E+00   1.0027052E-01
  3.3765648E+00   9.9637578E-02
  3.3865546E+00   9.9004640E-02
  3.3965444E+00   9.8371687E-02
  3.4065343E+00   9.7738750E-02
  3.4165241E+00   9.7105797E-02
  3.4265139E+00   9.6472860E-02
  3.4365038E+00   9.5839901E-02
  3.4464936E+00   9.5206964E-02
  3.4564835E+00   9.4574027E-02
  3.4664733E+00   9.3944196E-02
  3.4764631E+00   9.3358345E-02
  3.4864530E+00   9.2772480E-02
  3.4964428E+00   9.2186630E-02
  3.5064326E+00   9.1600782E-02
  3.5164225E+00   9.1014918E-02
  3.5264123E+00   9.0429070E-02
  3.5364021E+00   8.9843207E-02
  3.5463920E+00   8.9257361E-02
  3.5563818E+00   8.8671515E-02
  3.5663717E+00   8.8085654E-02
  3.5763615E+00   8.7499809E-02
  3.5863513E+00   8.6913950E-02
  3.5963412E+00   8.6359114E-02
  3.6063310E+00   8.5815907E-02
  3.6163208E+00   8.5272709E-02
  3.6263107E+00   8.4729513E-02
  3.6363005E+00   8.4186310E-02
  3.6462903E+00   8.3643116E-02
  3.6562802E+00   8.3099909E-02
  3.6662700E+00   8.2556726E-02
  3.6762599E+00   8.2013537E-02
  3.6862497E+00   8.1470334E-02
  3.6962395E+00   8.0927155E-02
  3.7062294E+00   8.0383956E-02
  3.7162192E+00   7.9855724E-02
  3.7262090E+00   7.9351071E-02
  3.7361989E+00   7.8846413E-02
  3.7461887E+00   7.8341766E-02
  3.7561785E+00   7.7837113E-02
  3.7661684E+00   7.7332472E-02
  3.7761582E+00   7.6827819E-02
  3.7861481E+00   7.6323184E-02
  3.7961379E+00   7.5818559E-02
  3.8061277E+00   7.5313915E-02
  3.8161176E+00   7.4809289E-02
  3.8261074E+00   7.4304660E-02
  3.8360972E+00   7.3801734E-02
  3.8460871E+00   7.3331798E-02
  3.8560769E+00   7.2861859E-02
  3.8660668E+00   7.2391933E-02
  3.8760566E+00   7.1921997E-02
  3.8860464E+00   7.1452082E-02
  3.8960363E+00   7.0982172E-02
  3.9060261E+00   7.0512253E-02
  3.9160159E+00   7.0042355E-02
  3.9260058E+00   6.9572455E-02
  3.9359956E+00   6.9102569E-02
  3.9459854E+00   6.8632673E-02
  3.9559753E+00   6.8162800E-02
  3.9659651E+00   6.7715016E-02
  3.9759550E+00   6.7276264E-02
  3.9859448E+00   6.6837529E-02
  3.9959346E+00   6.6398788E-02
  4.0059245E+00   6.5960079E-02
  4.0159143E+00   6.5521356E-02
  4.0259041E+00   6.5082651E-02
  4.0358940E+00   6.4643967E-02
  4.0458838E+00   6.4205286E-02
  4.0558736E+00   6.3766599E-02
  4.0658635E+00   6.3327938E-02
  4.0758533E+00   6.2889291E-02
  4.0858432E+00   6.2460970E-02
  4.0958330E+00   6.2050174E-02
  4.1058228E+00   6.1639370E-02
  4.1158127E+00   6.1228603E-02
  4.1258025E+00   6.0817848E-02
  4.1357923E+00   6.0407112E-02
  4.1457822E+00   5.9996386E-02
  4.1557720E+00   5.9585662E-02
  4.1657618E+00   5.9174969E-02
  4.1757517E+00   5.8764296E-02
  4.1857415E+00   5.8353635E-02
 4.195731357982   5.7942996E-02
  4.2057212E+00   5.7533134E-02
  4.2157110E+00   5.7147292E-02
  4.2257009E+00   5.6761470E-02
  4.2356907E+00   5.6375671E-02
  4.2456805E+00   5.5989895E-02
  4.2556704E+00   5.5604124E-02
  4.2656602E+00   5.5218395E-02
  4.2756501E+00   5.4832690E-02
  4.2856399E+00   5.4447011E-02
  4.2956297E+00   5.4061356E-02
  4.3056196E+00   5.3675709E-02
  4.3156094E+00   5.3290107E-02
  4.3255992E+00   5.2904532E-02
  4.3355891E+00   5.2534168E-02
  4.3455789E+00   5.2170578E-02
  4.3555687E+00   5.1807002E-02
  4.3655586E+00   5.1443479E-02
  4.3755484E+00   5.1079992E-02
  4.3855383E+00   5.0716540E-02
  4.3955281E+00   5.0353110E-02
  4.4055179E+00   4.9989733E-02
  4.4155078E+00   4.9626393E-02
  4.4254976E+00   4.9263094E-02
  4.4354874E+00   4.8899834E-02
  4.4454773E+00   4.8536596E-02
