# Version 1.0
# tree entry: B-Field (Ms)_Abs (X)

              0   1.4592778E+00
  9.9898366E-03   1.4597799E+00
  1.9979673E-02   1.4602823E+00
  2.9969510E-02   1.4603669E+00
  3.9959346E-02   1.4577376E+00
  4.9949183E-02   1.4551086E+00
  5.9939019E-02   1.4524799E+00
  6.9928856E-02   1.4498514E+00
  7.9918693E-02   1.4472232E+00
  8.9908529E-02   1.4433942E+00
  9.9898366E-02   1.4377671E+00
  1.0988820E-01   1.4321400E+00
  1.1987804E-01   1.4265131E+00
  1.2986788E-01   1.4208865E+00
  1.3985771E-01   1.4152601E+00
  1.4984755E-01   1.4078127E+00
  1.5983739E-01   1.3994573E+00
  1.6982722E-01   1.3911020E+00
  1.7981706E-01   1.3827470E+00
  1.8980689E-01   1.3743922E+00
  1.9979673E-01   1.3660375E+00
  2.0978657E-01   1.3554990E+00
  2.1977640E-01   1.3448066E+00
  2.2976624E-01  1.334114529452
  2.3975608E-01   1.3234224E+00
  2.4974591E-01   1.3127305E+00
  2.5973575E-01   1.3016662E+00
  2.6972559E-01   1.2891213E+00
  2.7971542E-01   1.2765766E+00
  2.8970526E-01   1.2640320E+00
  2.9969510E-01   1.2514874E+00
  3.0968493E-01   1.2389430E+00
  3.1967477E-01   1.2257578E+00
  3.2966461E-01   1.2118440E+00
  3.3965444E-01   1.1979303E+00
  3.4964428E-01   1.1840166E+00
  3.5963412E-01   1.1701030E+00
  3.6962395E-01   1.1561893E+00
  3.7961379E-01   1.1420765E+00
  3.8960363E-01   1.1273806E+00
  3.9959346E-01   1.1126849E+00
  4.0958330E-01   1.0979891E+00
  4.1957314E-01   1.0832934E+00
  4.2956297E-01   1.0685977E+00
  4.3955281E-01   1.0538940E+00
  4.4954265E-01   1.0390058E+00
  4.5953248E-01   1.0241174E+00
  4.6952232E-01   1.0092291E+00
  4.7951216E-01   9.9434083E-01
  4.8950199E-01   9.7945258E-01
  4.9949183E-01   9.6456429E-01
  5.0948166E-01   9.5003078E-01
  5.1947150E-01   9.3557061E-01
  5.2946134E-01   9.2111056E-01
  5.3945117E-01   9.0665039E-01
  5.4944101E-01   8.9219022E-01
  5.5943085E-01   8.7773011E-01
  5.6942068E-01   8.6327001E-01
  5.7941052E-01   8.4880990E-01
  5.8940036E-01   8.3434974E-01
  5.9939019E-01   8.1988957E-01
  6.0938003E-01   8.0542953E-01
  6.1936987E-01   7.9137105E-01
  6.2935970E-01   7.7862441E-01
  6.3934954E-01   7.6587783E-01
  6.4933938E-01   7.5313119E-01
  6.5932921E-01   7.4038455E-01
  6.6931905E-01   7.2763803E-01
  6.7930889E-01   7.1489139E-01
  6.8929872E-01   7.0214476E-01
  6.9928856E-01   6.8939818E-01
  7.0927840E-01   6.7665155E-01
  7.1926823E-01   6.6390492E-01
  7.2925807E-01   6.5115841E-01
  7.3924791E-01   6.3841178E-01
  7.4923774E-01   6.2762826E-01
  7.5922758E-01   6.1707418E-01
  7.6921742E-01   6.0652016E-01
  7.7920725E-01   5.9596620E-01
  7.8919709E-01   5.8541218E-01
  7.9918693E-01   5.7485817E-01
  8.0917676E-01   5.6430417E-01
  8.1916660E-01   5.5375016E-01
  8.2915644E-01   5.4319617E-01
  8.3914627E-01   5.3264223E-01
  8.4913611E-01   5.2208825E-01
  8.5912594E-01   5.1153420E-01
  8.6911578E-01   5.0215458E-01
  8.7910562E-01   4.9371196E-01
  8.8909545E-01   4.8526939E-01
  8.9908529E-01   4.7682675E-01
  9.0907513E-01   4.6838413E-01
  9.1906496E-01   4.5994156E-01
  9.2905480E-01   4.5149895E-01
  9.3904464E-01   4.4305633E-01
  9.4903447E-01   4.3461376E-01
  9.5902431E-01   4.2617119E-01
  9.6901415E-01   4.1772860E-01
  9.7900398E-01   4.0928604E-01
  9.8899382E-01   4.0123687E-01
  9.9898366E-01   3.9460653E-01
  1.0089735E+00   3.8797628E-01
  1.0189633E+00   3.8134597E-01
  1.0289532E+00   3.7471564E-01
  1.0389430E+00   3.6808535E-01
  1.0489328E+00   3.6145514E-01
  1.0589227E+00   3.5482486E-01
  1.0689125E+00   3.4819458E-01
  1.0789023E+00   3.4156430E-01
 1.088892185762   3.3493404E-01
  1.0988820E+00   3.2830375E-01
  1.1088719E+00   3.2167358E-01
  1.1188617E+00   3.1632893E-01
  1.1288515E+00   3.1116302E-01
  1.1388414E+00   3.0599709E-01
  1.1488312E+00   3.0083118E-01
  1.1588210E+00   2.9566532E-01
  1.1688109E+00   2.9049942E-01
  1.1788007E+00   2.8533353E-01
  1.1887906E+00   2.8016762E-01
  1.1987804E+00   2.7500174E-01
  1.2087702E+00   2.6983583E-01
  1.2187601E+00   2.6467002E-01
  1.2287499E+00   2.5950416E-01
  1.2387397E+00   2.5495580E-01
  1.2487296E+00   2.5093597E-01
  1.2587194E+00   2.4691614E-01
  1.2687092E+00   2.4289631E-01
  1.2786991E+00   2.3887653E-01
  1.2886889E+00   2.3485670E-01
  1.2986788E+00   2.3083688E-01
  1.3086686E+00   2.2681707E-01
  1.3186584E+00   2.2279724E-01
  1.3286483E+00   2.1877749E-01
  1.3386381E+00   2.1475768E-01
  1.3486279E+00   2.1073788E-01
  1.3586178E+00   2.0689432E-01
  1.3686076E+00   2.0375699E-01
  1.3785974E+00   2.0061966E-01
  1.3885873E+00   1.9748236E-01
  1.3985771E+00   1.9434505E-01
  1.4085670E+00   1.9120772E-01
  1.4185568E+00   1.8807040E-01
  1.4285466E+00   1.8493308E-01
  1.4385365E+00   1.8179576E-01
  1.4485263E+00   1.7865847E-01
  1.4585161E+00   1.7552116E-01
  1.4685060E+00   1.7238385E-01
  1.4784958E+00   1.6924654E-01
  1.4884856E+00   1.6669030E-01
  1.4984755E+00   1.6422819E-01
  1.5084653E+00   1.6176604E-01
  1.5184552E+00   1.5930390E-01
  1.5284450E+00   1.5684177E-01
  1.5384348E+00   1.5437964E-01
  1.5484247E+00   1.5191751E-01
  1.5584145E+00   1.4945539E-01
  1.5684043E+00   1.4699326E-01
  1.5783942E+00   1.4453114E-01
  1.5883840E+00   1.4206900E-01
  1.5983739E+00   1.3960687E-01
  1.6083637E+00   1.3741401E-01
  1.6183535E+00   1.3546815E-01
  1.6283434E+00   1.3352231E-01
  1.6383332E+00   1.3157645E-01
  1.6483230E+00   1.2963060E-01
  1.6583129E+00   1.2768476E-01
  1.6683027E+00   1.2573894E-01
  1.6782925E+00   1.2379309E-01
  1.6882824E+00   1.2184724E-01
  1.6982722E+00   1.1990139E-01
  1.7082621E+00   1.1795555E-01
  1.7182519E+00   1.1600970E-01
  1.7282417E+00   1.1413611E-01
  1.7382316E+00   1.1258630E-01
  1.7482214E+00   1.1103647E-01
  1.7582112E+00   1.0948666E-01
  1.7682011E+00   1.0793684E-01
  1.7781909E+00   1.0638704E-01
  1.7881807E+00   1.0483722E-01
  1.7981706E+00   1.0328740E-01
  1.8081604E+00   1.0173758E-01
  1.8181503E+00   1.0018777E-01
  1.8281401E+00   9.8637960E-02
  1.8381299E+00   9.7088164E-02
  1.8481198E+00   9.5538354E-02
  1.8581096E+00   9.4246089E-02
  1.8680994E+00   9.3001700E-02
  1.8780893E+00   9.1757310E-02
  1.8880791E+00   9.0512914E-02
  1.8980689E+00   8.9268540E-02
  1.9080588E+00   8.8024152E-02
  1.9180486E+00   8.6779757E-02
  1.9280385E+00   8.5535370E-02
  1.9380283E+00   8.4290983E-02
  1.9480181E+00   8.3046612E-02
  1.9580080E+00   8.1802219E-02
  1.9679978E+00   8.0557834E-02
  1.9779876E+00   7.9432876E-02
  1.9879775E+00   7.8425377E-02
  1.9979673E+00   7.7417879E-02
  2.0079571E+00   7.6410381E-02
  2.0179470E+00   7.5402891E-02
  2.0279368E+00   7.4395379E-02
  2.0379267E+00   7.3387897E-02
  2.0479165E+00   7.2380407E-02
  2.0579063E+00   7.1372903E-02
  2.0678962E+00   7.0365415E-02
  2.0778860E+00   6.9357904E-02
  2.0878758E+00   6.8350424E-02
 2.097865678991   6.7373508E-02
  2.1078555E+00   6.6551230E-02
  2.1178454E+00   6.5728967E-02
  2.1278352E+00   6.4906690E-02
  2.1378250E+00   6.4084435E-02
  2.1478149E+00   6.3262173E-02
  2.1578047E+00   6.2439896E-02
  2.1677945E+00   6.1617638E-02
  2.1777844E+00   6.0795362E-02
  2.1877742E+00   5.9973104E-02
  2.1977640E+00   5.9150828E-02
  2.2077539E+00   5.8328571E-02
  2.2177437E+00   5.7506314E-02
  2.2277336E+00   5.6804491E-02
  2.2377234E+00   5.6128071E-02
  2.2477132E+00   5.5451632E-02
  2.2577031E+00   5.4775213E-02
  2.2676929E+00   5.4098793E-02
  2.2776827E+00   5.3422355E-02
  2.2876726E+00   5.2745936E-02
  2.2976624E+00   5.2069502E-02
  2.3076522E+00   5.1393084E-02
  2.3176421E+00   5.0716665E-02
  2.3276319E+00   5.0040228E-02
  2.3376218E+00   4.9363810E-02
  2.3476116E+00   4.8743664E-02
  2.3576014E+00   4.8182868E-02
  2.3675913E+00   4.7622061E-02
  2.3775811E+00   4.7061265E-02
  2.3875709E+00   4.6500473E-02
  2.3975608E+00   4.5939666E-02
  2.4075506E+00   4.5378871E-02
  2.4175404E+00   4.4818064E-02
  2.4275303E+00   4.4257269E-02
  2.4375201E+00   4.3696478E-02
  2.4475100E+00   4.3135672E-02
  2.4574998E+00   4.2574877E-02
  2.4674896E+00   4.2027709E-02
  2.4774795E+00   4.1559271E-02
  2.4874693E+00   4.1090832E-02
  2.4974591E+00   4.0622382E-02
  2.5074490E+00   4.0153944E-02
  2.5174388E+00   3.9685494E-02
  2.5274287E+00   3.9217056E-02
  2.5374185E+00   3.8748607E-02
  2.5474083E+00   3.8280169E-02
  2.5573982E+00   3.7811734E-02
  2.5673880E+00   3.7343282E-02
  2.5773778E+00   3.6874844E-02
  2.5873677E+00   3.6406399E-02
  2.5973575E+00   3.5998002E-02
  2.6073473E+00   3.5603822E-02
  2.6173372E+00   3.5209631E-02
  2.6273270E+00   3.4815451E-02
  2.6373169E+00   3.4421260E-02
  2.6473067E+00   3.4027080E-02
  2.6572965E+00   3.3632901E-02
  2.6672864E+00   3.3238710E-02
  2.6772762E+00   3.2844530E-02
  2.6872660E+00   3.2450339E-02
  2.6972559E+00   3.2056160E-02
  2.7072457E+00   3.1661973E-02
  2.7172355E+00   3.1295984E-02
  2.7272254E+00   3.0961853E-02
  2.7372152E+00   3.0627715E-02
  2.7472051E+00   3.0293586E-02
  2.7571949E+00   2.9959448E-02
  2.7671847E+00   2.9625318E-02
  2.7771746E+00   2.9291190E-02
  2.7871644E+00   2.8957052E-02
  2.7971542E+00   2.8622922E-02
  2.8071441E+00   2.8288784E-02
  2.8171339E+00   2.7954654E-02
  2.8271237E+00   2.7620526E-02
  2.8371136E+00   2.7292758E-02
  2.8471034E+00   2.7007493E-02
  2.8570933E+00   2.6722221E-02
  2.8670831E+00   2.6436956E-02
  2.8770729E+00   2.6151686E-02
  2.8870628E+00   2.5866421E-02
  2.8970526E+00   2.5581156E-02
  2.9070424E+00   2.5295884E-02
  2.9170323E+00   2.5010619E-02
  2.9270221E+00   2.4725347E-02
  2.9370120E+00   2.4440082E-02
  2.9470018E+00   2.4154818E-02
  2.9569916E+00   2.3869548E-02
  2.9669815E+00   2.3615885E-02
  2.9769713E+00   2.3370556E-02
  2.9869611E+00   2.3125230E-02
  2.9969510E+00   2.2879905E-02
  3.0069408E+00   2.2634574E-02
  3.0169306E+00   2.2389250E-02
  3.0269205E+00   2.2143919E-02
  3.0369103E+00   2.1898594E-02
  3.0469002E+00   2.1653270E-02
  3.0568900E+00   2.1407940E-02
  3.0668798E+00   2.1162614E-02
  3.0768697E+00   2.0917284E-02
  3.0868595E+00   2.0686766E-02
  3.0968493E+00   2.0474185E-02
  3.1068392E+00   2.0261609E-02
  3.1168290E+00   2.0049033E-02
  3.1268188E+00   1.9836451E-02
  3.1368087E+00   1.9623875E-02
  3.1467985E+00   1.9411293E-02
  3.1567884E+00   1.9198717E-02
  3.1667782E+00   1.8986141E-02
  3.1767680E+00   1.8773560E-02
 3.186757864753   1.8560984E-02
  3.1967477E+00   1.8348403E-02
  3.2067375E+00   1.8138878E-02
  3.2167274E+00   1.7953293E-02
  3.2267172E+00   1.7767704E-02
  3.2367070E+00   1.7582119E-02
  3.2466969E+00   1.7396530E-02
  3.2566867E+00   1.7210945E-02
  3.2666766E+00   1.7025356E-02
  3.2766664E+00   1.6839771E-02
  3.2866562E+00   1.6654185E-02
  3.2966461E+00   1.6468597E-02
  3.3066359E+00   1.6283012E-02
  3.3166257E+00   1.6097424E-02
  3.3266156E+00   1.5911838E-02
  3.3366054E+00   1.5743463E-02
  3.3465952E+00   1.5580110E-02
  3.3565851E+00   1.5416762E-02
  3.3665749E+00   1.5253410E-02
  3.3765648E+00   1.5090061E-02
  3.3865546E+00   1.4926713E-02
  3.3965444E+00   1.4763361E-02
  3.4065343E+00   1.4600013E-02
  3.4165241E+00   1.4436661E-02
  3.4265139E+00   1.4273313E-02
  3.4365038E+00   1.4109960E-02
  3.4464936E+00   1.3946613E-02
  3.4564835E+00   1.3791208E-02
  3.4664733E+00   1.3646127E-02
  3.4764631E+00   1.3501049E-02
  3.4864530E+00   1.3355969E-02
  3.4964428E+00   1.3210892E-02
  3.5064326E+00   1.3065814E-02
  3.5164225E+00   1.2920733E-02
  3.5264123E+00   1.2775656E-02
  3.5364021E+00   1.2630575E-02
  3.5463920E+00   1.2485497E-02
  3.5563818E+00   1.2340420E-02
  3.5663717E+00   1.2195340E-02
  3.5763615E+00   1.2051705E-02
  3.5863513E+00   1.1921710E-02
  3.5963412E+00   1.1791718E-02
  3.6063310E+00   1.1661723E-02
  3.6163208E+00   1.1531730E-02
  3.6263107E+00   1.1401738E-02
  3.6363005E+00   1.1271743E-02
  3.6462903E+00   1.1141750E-02
  3.6562802E+00   1.1011755E-02
  3.6662700E+00   1.0881763E-02
  3.6762599E+00   1.0751771E-02
  3.6862497E+00   1.0621775E-02
  3.6962395E+00   1.0491784E-02
  3.7062294E+00   1.0371110E-02
  3.7162192E+00   1.0253439E-02
  3.7262090E+00   1.0135768E-02
  3.7361989E+00   1.0018095E-02
  3.7461887E+00   9.9004239E-03
  3.7561785E+00   9.7827502E-03
  3.7661684E+00   9.6650794E-03
  3.7761582E+00   9.5474058E-03
  3.7861481E+00   9.4297350E-03
  3.7961379E+00   9.3120643E-03
  3.8061277E+00   9.1943908E-03
  3.8161176E+00   9.0767201E-03
  3.8261074E+00   8.9631779E-03
  3.8360972E+00   8.8554042E-03
  3.8460871E+00   8.7476296E-03
  3.8560769E+00   8.6398531E-03
  3.8660668E+00   8.5320795E-03
  3.8760566E+00   8.4243022E-03
  3.8860464E+00   8.3165286E-03
  3.8960363E+00   8.2087551E-03
  3.9060261E+00   8.1009778E-03
  3.9160159E+00   7.9932043E-03
  3.9260058E+00   7.8854272E-03
  3.9359956E+00   7.7776537E-03
  3.9459854E+00   7.6704936E-03
  3.9559753E+00   7.5705831E-03
  3.9659651E+00   7.4706726E-03
  3.9759550E+00   7.3707598E-03
  3.9859448E+00   7.2708493E-03
  3.9959346E+00   7.1709361E-03
  4.0059245E+00   7.0710285E-03
  4.0159143E+00   6.9711130E-03
  4.0259041E+00   6.8712027E-03
  4.0358940E+00   6.7712924E-03
  4.0458838E+00   6.6713821E-03
  4.0558736E+00   6.5714672E-03
  4.0658635E+00   6.4715570E-03
  4.0758533E+00   6.3761319E-03
  4.0858432E+00   6.2822886E-03
  4.0958330E+00   6.1884453E-03
  4.1058228E+00   6.0945979E-03
  4.1158127E+00   6.0007547E-03
  4.1258025E+00   5.9069120E-03
  4.1357923E+00   5.8130688E-03
  4.1457822E+00   5.7192257E-03
  4.1557720E+00   5.6253785E-03
  4.1657618E+00   5.5315354E-03
  4.1757517E+00   5.4376929E-03
  4.1857415E+00   5.3438500E-03
 4.195731357982   5.2517617E-03
  4.2057212E+00   5.1622998E-03
  4.2157110E+00   5.0728421E-03
  4.2257009E+00   4.9833844E-03
  4.2356907E+00   4.8939268E-03
  4.2456805E+00   4.8044693E-03
  4.2556704E+00   4.7150076E-03
  4.2656602E+00   4.6255502E-03
  4.2756501E+00   4.5360929E-03
  4.2856399E+00   4.4466361E-03
  4.2956297E+00   4.3571789E-03
  4.3056196E+00   4.2677171E-03
  4.3156094E+00               0
  4.3255992E+00               0
  4.3355891E+00               0
  4.3455789E+00               0
  4.3555687E+00               0
  4.3655586E+00               0
  4.3755484E+00               0
  4.3855383E+00               0
  4.3955281E+00               0
  4.4055179E+00               0
  4.4155078E+00               0
  4.4254976E+00               0
  4.4354874E+00               0
  4.4454773E+00               0
