# Version 1.0
# tree entry: B-Field (Ms)_Abs (X)

              0   7.9757530E-01
  9.9898366E-03   8.1019525E-01
  1.9979673E-02   8.2281642E-01
  2.9969510E-02   8.3488529E-01
  3.9959346E-02   8.4336130E-01
  4.9949183E-02   8.5183823E-01
  5.9939019E-02   8.6031604E-01
  6.9928856E-02   8.6879472E-01
  7.9918693E-02   8.7727424E-01
  8.9908529E-02   8.8414456E-01
  9.9898366E-02   8.8860412E-01
  1.0988820E-01   8.9306436E-01
  1.1987804E-01   8.9752515E-01
  1.2986788E-01   9.0198654E-01
  1.3985771E-01   9.0644852E-01
  1.4984755E-01   9.0842715E-01
  1.5983739E-01   9.0916751E-01
  1.6982722E-01   9.0990835E-01
  1.7981706E-01   9.1064955E-01
  1.8980689E-01   9.1139116E-01
  1.9979673E-01   9.1213318E-01
  2.0978657E-01   9.0981492E-01
  2.1977640E-01   9.0728113E-01
  2.2976624E-01   9.0474761E-01
  2.3975608E-01   9.0221437E-01
  2.4974591E-01   8.9968148E-01
  2.5973575E-01   8.9660145E-01
  2.6972559E-01   8.9134668E-01
  2.7971542E-01   8.8609207E-01
  2.8970526E-01   8.8083763E-01
  2.9969510E-01   8.7558332E-01
  3.0968493E-01   8.7032924E-01
  3.1967477E-01   8.6404754E-01
  3.2966461E-01   8.5659729E-01
  3.3965444E-01   8.4914713E-01
  3.4964428E-01   8.4169713E-01
  3.5963412E-01   8.3424717E-01
  3.6962395E-01   8.2679738E-01
  3.7961379E-01   8.1895061E-01
  3.8960363E-01   8.0994892E-01
  3.9959346E-01   8.0094729E-01
  4.0958330E-01   7.9194575E-01
  4.1957314E-01   7.8294421E-01
  4.2956297E-01   7.7394271E-01
  4.3955281E-01   7.6490307E-01
  4.4954265E-01   7.5502628E-01
  4.5953248E-01   7.4514945E-01
  4.6952232E-01   7.3527264E-01
  4.7951216E-01   7.2539591E-01
  4.8950199E-01   7.1551919E-01
  4.9949183E-01   7.0564244E-01
  5.0948166E-01   6.9540266E-01
  5.1947150E-01   6.8508937E-01
  5.2946134E-01   6.7477614E-01
  5.3945117E-01   6.6446285E-01
  5.4944101E-01   6.5414951E-01
  5.5943085E-01   6.4383629E-01
  5.6942068E-01   6.3352301E-01
  5.7941052E-01   6.2320979E-01
  5.8940036E-01   6.1289651E-01
  5.9939019E-01   6.0258318E-01
  6.0938003E-01   5.9226997E-01
  6.1936987E-01   5.8205388E-01
  6.2935970E-01   5.7256339E-01
  6.3934954E-01   5.6307289E-01
  6.4933938E-01   5.5358240E-01
  6.5932921E-01   5.4409184E-01
  6.6931905E-01   5.3460135E-01
  6.7930889E-01   5.2511086E-01
  6.8929872E-01   5.1562031E-01
  6.9928856E-01   5.0612987E-01
  7.0927840E-01   4.9663932E-01
  7.1926823E-01   4.8714884E-01
  7.2925807E-01   4.7765835E-01
  7.3924791E-01   4.6816783E-01
  7.4923774E-01   4.5983927E-01
  7.5922758E-01   4.5183285E-01
  7.6921742E-01   4.4382641E-01
  7.7920725E-01   4.3582007E-01
  7.8919709E-01   4.2781366E-01
  7.9918693E-01   4.1980723E-01
  8.0917676E-01   4.1180090E-01
  8.1916660E-01   4.0379451E-01
  8.2915644E-01   3.9578810E-01
  8.3914627E-01   3.8778178E-01
  8.4913611E-01   3.7977541E-01
  8.5912594E-01   3.7176902E-01
  8.6911578E-01   3.6446497E-01
  8.7910562E-01   3.5802732E-01
  8.8909545E-01   3.5158971E-01
  8.9908529E-01   3.4515210E-01
  9.0907513E-01   3.3871447E-01
  9.1906496E-01   3.3227690E-01
  9.2905480E-01   3.2583928E-01
  9.3904464E-01   3.1940167E-01
  9.4903447E-01   3.1296410E-01
  9.5902431E-01   3.0652654E-01
  9.6901415E-01   3.0008895E-01
  9.7900398E-01   2.9365143E-01
  9.8899382E-01   2.8737081E-01
  9.9898366E-01   2.8232937E-01
  1.0089735E+00   2.7728797E-01
  1.0189633E+00   2.7224655E-01
  1.0289532E+00   2.6720513E-01
  1.0389430E+00   2.6216375E-01
  1.0489328E+00   2.5712241E-01
  1.0589227E+00   2.5208101E-01
  1.0689125E+00   2.4703961E-01
  1.0789023E+00   2.4199822E-01
 1.088892185762   2.3695685E-01
  1.0988820E+00   2.3191550E-01
  1.1088719E+00   2.2687421E-01
  1.1188617E+00   2.2272228E-01
  1.1288515E+00   2.1882537E-01
  1.1388414E+00   2.1492846E-01
  1.1488312E+00   2.1103155E-01
  1.1588210E+00   2.0713469E-01
  1.1688109E+00   2.0323779E-01
  1.1788007E+00   1.9934091E-01
  1.1887906E+00   1.9544402E-01
  1.1987804E+00   1.9154714E-01
  1.2087702E+00   1.8765027E-01
  1.2187601E+00   1.8375346E-01
  1.2287499E+00   1.7985659E-01
  1.2387397E+00   1.7635677E-01
  1.2487296E+00   1.7335829E-01
  1.2587194E+00   1.7035982E-01
  1.2687092E+00   1.6736136E-01
  1.2786991E+00   1.6436292E-01
  1.2886889E+00   1.6136447E-01
  1.2986788E+00   1.5836601E-01
  1.3086686E+00   1.5536756E-01
  1.3186584E+00   1.5236911E-01
  1.3286483E+00   1.4937071E-01
  1.3386381E+00   1.4637228E-01
  1.3486279E+00   1.4337385E-01
  1.3586178E+00   1.4044901E-01
  1.3686076E+00   1.3814027E-01
  1.3785974E+00   1.3583151E-01
  1.3885873E+00   1.3352279E-01
  1.3985771E+00   1.3121404E-01
  1.4085670E+00   1.2890530E-01
  1.4185568E+00   1.2659655E-01
  1.4285466E+00   1.2428782E-01
  1.4385365E+00   1.2197909E-01
  1.4485263E+00   1.1967039E-01
  1.4585161E+00   1.1736167E-01
  1.4685060E+00   1.1505294E-01
  1.4784958E+00   1.1274423E-01
  1.4884856E+00   1.1083982E-01
  1.4984755E+00   1.0905519E-01
  1.5084653E+00   1.0727054E-01
  1.5184552E+00   1.0548591E-01
  1.5284450E+00   1.0370127E-01
  1.5384348E+00   1.0191663E-01
  1.5484247E+00   1.0013199E-01
  1.5584145E+00   9.8347382E-02
  1.5684043E+00   9.6562750E-02
  1.5783942E+00   9.4778121E-02
  1.5883840E+00   9.2993502E-02
  1.5983739E+00   9.1208878E-02
  1.6083637E+00   8.9597382E-02
  1.6183535E+00   8.8209571E-02
  1.6283434E+00   8.6821762E-02
  1.6383332E+00   8.5433954E-02
  1.6483230E+00   8.4046148E-02
  1.6583129E+00   8.2658343E-02
  1.6683027E+00   8.1270563E-02
  1.6782925E+00   7.9882762E-02
  1.6882824E+00   7.8494963E-02
  1.6982722E+00   7.7107165E-02
  1.7082621E+00   7.5719370E-02
  1.7182519E+00   7.4331578E-02
  1.7282417E+00   7.2974208E-02
  1.7382316E+00   7.1887461E-02
  1.7482214E+00   7.0800708E-02
  1.7582112E+00   6.9713956E-02
  1.7682011E+00   6.8627205E-02
  1.7781909E+00   6.7540471E-02
  1.7881807E+00   6.6453722E-02
  1.7981706E+00   6.5366975E-02
  1.8081604E+00   6.4280230E-02
  1.8181503E+00   6.3193493E-02
  1.8281401E+00   6.2106747E-02
  1.8381299E+00   6.1020020E-02
  1.8481198E+00   5.9933285E-02
  1.8581096E+00   5.9021985E-02
  1.8680994E+00   5.8164358E-02
  1.8780893E+00   5.7306732E-02
  1.8880791E+00   5.6449106E-02
  1.8980689E+00   5.5591489E-02
  1.9080588E+00   5.4733865E-02
  1.9180486E+00   5.3876243E-02
  1.9280385E+00   5.3018621E-02
  1.9380283E+00   5.2161000E-02
  1.9480181E+00   5.1303388E-02
  1.9580080E+00   5.0445769E-02
  1.9679978E+00   4.9588152E-02
  1.9779876E+00   4.8806076E-02
  1.9879775E+00   4.8123918E-02
  1.9979673E+00   4.7441765E-02
  2.0079571E+00   4.6759612E-02
  2.0179470E+00   4.6077467E-02
  2.0279368E+00   4.5395307E-02
  2.0379267E+00   4.4713164E-02
  2.0479165E+00   4.4031021E-02
  2.0579063E+00   4.3348864E-02
  2.0678962E+00   4.2666723E-02
  2.0778860E+00   4.1984567E-02
  2.0878758E+00   4.1302428E-02
 2.097865678991   4.0633174E-02
  2.1078555E+00   4.0086264E-02
  2.1178454E+00   3.9539374E-02
  2.1278352E+00   3.8992466E-02
  2.1378250E+00   3.8445572E-02
  2.1478149E+00   3.7898680E-02
  2.1578047E+00   3.7351777E-02
  2.1677945E+00   3.6804885E-02
  2.1777844E+00   3.6257983E-02
  2.1877742E+00   3.5711093E-02
  2.1977640E+00   3.5164192E-02
  2.2077539E+00   3.4617303E-02
  2.2177437E+00   3.4070414E-02
  2.2277336E+00   3.3603259E-02
  2.2377234E+00   3.3161296E-02
  2.2477132E+00   3.2719323E-02
  2.2577031E+00   3.2277357E-02
  2.2676929E+00   3.1835396E-02
  2.2776827E+00   3.1393423E-02
  2.2876726E+00   3.0951460E-02
  2.2976624E+00   3.0509487E-02
  2.3076522E+00   3.0067527E-02
  2.3176421E+00   2.9625566E-02
  2.3276319E+00   2.9183594E-02
  2.3376218E+00   2.8741635E-02
  2.3476116E+00   2.8334524E-02
  2.3576014E+00   2.7974619E-02
  2.3675913E+00   2.7614706E-02
  2.3775811E+00   2.7254801E-02
  2.3875709E+00   2.6894897E-02
  2.3975608E+00   2.6534984E-02
  2.4075506E+00   2.6175081E-02
  2.4175404E+00   2.5815169E-02
  2.4275303E+00   2.5455266E-02
  2.4375201E+00   2.5095364E-02
  2.4475100E+00   2.4735453E-02
  2.4574998E+00   2.4375552E-02
  2.4674896E+00   2.4021426E-02
  2.4774795E+00   2.3726091E-02
  2.4874693E+00   2.3430758E-02
  2.4974591E+00   2.3135418E-02
  2.5074490E+00   2.2840086E-02
  2.5174388E+00   2.2544746E-02
  2.5274287E+00   2.2249412E-02
  2.5374185E+00   2.1954073E-02
  2.5474083E+00   2.1658742E-02
  2.5573982E+00   2.1363411E-02
  2.5673880E+00   2.1068073E-02
  2.5773778E+00   2.0772741E-02
  2.5873677E+00   2.0477403E-02
  2.5973575E+00   2.0220654E-02
  2.6073473E+00   1.9976467E-02
  2.6173372E+00   1.9732275E-02
  2.6273270E+00   1.9488091E-02
  2.6373169E+00   1.9243899E-02
  2.6473067E+00   1.8999714E-02
  2.6572965E+00   1.8755528E-02
  2.6672864E+00   1.8511339E-02
  2.6772762E+00   1.8267154E-02
  2.6872660E+00   1.8022964E-02
  2.6972559E+00   1.7778781E-02
  2.7072457E+00   1.7534591E-02
  2.7172355E+00   1.7307510E-02
  2.7272254E+00   1.7104138E-02
  2.7372152E+00   1.6900761E-02
  2.7472051E+00   1.6697389E-02
  2.7571949E+00   1.6494012E-02
  2.7671847E+00   1.6290641E-02
  2.7771746E+00   1.6087270E-02
  2.7871644E+00   1.5883893E-02
  2.7971542E+00   1.5680523E-02
  2.8071441E+00   1.5477147E-02
  2.8171339E+00   1.5273776E-02
  2.8271237E+00   1.5070406E-02
  2.8371136E+00   1.4869777E-02
  2.8471034E+00   1.4699145E-02
  2.8570933E+00   1.4528509E-02
  2.8670831E+00   1.4357878E-02
  2.8770729E+00   1.4187242E-02
  2.8870628E+00   1.4016611E-02
  2.8970526E+00   1.3845980E-02
  2.9070424E+00   1.3675345E-02
  2.9170323E+00   1.3504715E-02
  2.9270221E+00   1.3334080E-02
  2.9370120E+00   1.3163450E-02
  2.9470018E+00   1.2992820E-02
  2.9569916E+00   1.2822186E-02
  2.9669815E+00   1.2671311E-02
  2.9769713E+00   1.2527066E-02
  2.9869611E+00   1.2382825E-02
  2.9969510E+00   1.2238583E-02
  3.0069408E+00   1.2094338E-02
  3.0169306E+00   1.1950098E-02
  3.0269205E+00   1.1805853E-02
  3.0369103E+00   1.1661612E-02
  3.0469002E+00   1.1517372E-02
  3.0568900E+00   1.1373129E-02
  3.0668798E+00   1.1228888E-02
  3.0768697E+00   1.1084645E-02
  3.0868595E+00   1.0949238E-02
  3.0968493E+00   1.0826363E-02
  3.1068392E+00   1.0703492E-02
  3.1168290E+00   1.0580620E-02
  3.1268188E+00   1.0457746E-02
  3.1368087E+00   1.0334875E-02
  3.1467985E+00   1.0212001E-02
  3.1567884E+00   1.0089130E-02
  3.1667782E+00   9.9662594E-03
  3.1767680E+00   9.8433858E-03
 3.186757864753   9.7205151E-03
  3.1967477E+00   9.5976418E-03
  3.2067375E+00   9.4761292E-03
  3.2167274E+00   9.3706235E-03
  3.2267172E+00   9.2651160E-03
  3.2367070E+00   9.1596106E-03
  3.2466969E+00   9.0541025E-03
  3.2566867E+00   8.9485983E-03
  3.2666766E+00   8.8430906E-03
  3.2766664E+00   8.7375858E-03
  3.2866562E+00   8.6320821E-03
  3.2966461E+00   8.5265749E-03
  3.3066359E+00   8.4210707E-03
  3.3166257E+00   8.3155649E-03
  3.3266156E+00   8.2100611E-03
  3.3366054E+00   8.1150867E-03
  3.3465952E+00   8.0237535E-03
  3.3565851E+00   7.9324232E-03
  3.3665749E+00   7.8410903E-03
  3.3765648E+00   7.7497604E-03
  3.3865546E+00   7.6584302E-03
  3.3965444E+00   7.5670979E-03
  3.4065343E+00   7.4757681E-03
  3.4165241E+00   7.3844366E-03
  3.4265139E+00   7.2931072E-03
  3.4365038E+00   7.2017757E-03
  3.4464936E+00   7.1104471E-03
  3.4564835E+00   7.0238169E-03
  3.4664733E+00   6.9440126E-03
  3.4764631E+00   6.8642108E-03
  3.4864530E+00   6.7844064E-03
  3.4964428E+00   6.7046050E-03
  3.5064326E+00   6.6248034E-03
  3.5164225E+00   6.5450001E-03
  3.5264123E+00   6.4651989E-03
  3.5364021E+00   6.3853960E-03
  3.5463920E+00   6.3055952E-03
  3.5563818E+00   6.2257947E-03
  3.5663717E+00   6.1459926E-03
  3.5763615E+00   6.0668700E-03
  3.5863513E+00   5.9964260E-03
  3.5963412E+00   5.9259837E-03
  3.6063310E+00   5.8555396E-03
  3.6163208E+00   5.7850977E-03
  3.6263107E+00   5.7146560E-03
  3.6363005E+00   5.6442127E-03
  3.6462903E+00   5.5737715E-03
  3.6562802E+00   5.5033287E-03
  3.6662700E+00   5.4328881E-03
  3.6762599E+00   5.3624477E-03
  3.6862497E+00   5.2920063E-03
  3.6962395E+00   5.2215665E-03
  3.7062294E+00   5.1567254E-03
  3.7162192E+00   5.0938828E-03
  3.7262090E+00   5.0310401E-03
  3.7361989E+00   4.9681967E-03
  3.7461887E+00   4.9053546E-03
  3.7561785E+00   4.8425118E-03
  3.7661684E+00   4.7796703E-03
  3.7761582E+00   4.7168282E-03
  3.7861481E+00   4.6539874E-03
  3.7961379E+00   4.5911473E-03
  3.8061277E+00   4.5283058E-03
  3.8161176E+00   4.4654666E-03
  3.8261074E+00   4.4050638E-03
  3.8360972E+00   4.3482904E-03
  3.8460871E+00   4.2915174E-03
  3.8560769E+00   4.2347433E-03
  3.8660668E+00   4.1779711E-03
  3.8760566E+00   4.1211978E-03
  3.8860464E+00   4.0644260E-03
  3.8960363E+00   4.0076550E-03
  3.9060261E+00   3.9508832E-03
  3.9160159E+00   3.8941132E-03
  3.9260058E+00   3.8373423E-03
  3.9359956E+00   3.7805732E-03
  3.9459854E+00   3.7241215E-03
  3.9559753E+00   3.6721173E-03
  3.9659651E+00   3.6201137E-03
  3.9759550E+00   3.5681096E-03
  3.9859448E+00   3.5161071E-03
  3.9959346E+00   3.4641042E-03
  4.0059245E+00   3.4121044E-03
  4.0159143E+00   3.3601016E-03
  4.0259041E+00   3.3081018E-03
  4.0358940E+00   3.2561028E-03
  4.0458838E+00   3.2041047E-03
  4.0558736E+00   3.1521047E-03
  4.0658635E+00   3.1001084E-03
  4.0758533E+00   3.0507688E-03
  4.0858432E+00   3.0024051E-03
  4.0958330E+00   2.9540420E-03
  4.1058228E+00   2.9056778E-03
  4.1158127E+00   2.8573169E-03
  4.1258025E+00   2.8089568E-03
  4.1357923E+00   2.7605981E-03
  4.1457822E+00   2.7122405E-03
  4.1557720E+00   2.6638815E-03
  4.1657618E+00   2.6155264E-03
  4.1757517E+00   2.5671725E-03
  4.1857415E+00   2.5188202E-03
 4.195731357982   2.4715063E-03
  4.2057212E+00   2.4257717E-03
  4.2157110E+00   2.3800413E-03
  4.2257009E+00   2.3343128E-03
  4.2356907E+00   2.2885861E-03
  4.2456805E+00   2.2428619E-03
  4.2556704E+00   2.1971379E-03
  4.2656602E+00   2.1514182E-03
  4.2756501E+00   2.1057013E-03
  4.2856399E+00   2.0599873E-03
  4.2956297E+00   2.0142763E-03
  4.3056196E+00   1.9685661E-03
  4.3156094E+00               0
  4.3255992E+00               0
  4.3355891E+00               0
  4.3455789E+00               0
  4.3555687E+00               0
  4.3655586E+00               0
  4.3755484E+00               0
  4.3855383E+00               0
  4.3955281E+00               0
  4.4055179E+00               0
  4.4155078E+00               0
  4.4254976E+00               0
  4.4354874E+00               0
  4.4454773E+00               0
