# Version 1.0
# tree entry: B-Field (Ms)_Abs (Y)

           -0.6   2.7579749E-02
          -0.59   2.7684409E-02
          -0.58   2.7789069E-02
          -0.57   2.7893730E-02
          -0.56   2.7998390E-02
          -0.55   2.8103050E-02
          -0.54   2.8207710E-02
          -0.53   2.8312372E-02
          -0.52   2.8417032E-02
          -0.51   2.8521692E-02
           -0.5   2.8626353E-02
          -0.49   2.8731013E-02
          -0.48   2.8835673E-02
          -0.47   2.8940333E-02
          -0.46   2.9044993E-02
          -0.45   2.9149653E-02
          -0.44   2.9254314E-02
          -0.43   2.9358974E-02
          -0.42   2.9446710E-02
          -0.41   2.9523864E-02
           -0.4   2.9601021E-02
          -0.39   2.9678175E-02
          -0.38   2.9755332E-02
          -0.37   2.9832486E-02
          -0.36   2.9909641E-02
          -0.35   2.9986797E-02
          -0.34   3.0063951E-02
          -0.33   3.0141106E-02
          -0.32   3.0218262E-02
          -0.31   3.0295417E-02
           -0.3   3.0372571E-02
          -0.29   3.0449728E-02
          -0.28   3.0526882E-02
          -0.27   3.0604038E-02
          -0.26   3.0663883E-02
          -0.25   3.0715302E-02
          -0.24   3.0766720E-02
          -0.23   3.0818138E-02
          -0.22   3.0869555E-02
          -0.21   3.0920973E-02
           -0.2   3.0972391E-02
          -0.19   3.1023810E-02
          -0.18   3.1075228E-02
          -0.17   3.1111030E-02
          -0.16   3.1142469E-02
          -0.15   3.1173911E-02
          -0.14   3.1205351E-02
          -0.13   3.1236792E-02
          -0.12   3.1268232E-02
          -0.11   3.1299673E-02
           -0.1   3.1331114E-02
          -0.09   3.1362556E-02
          -0.08   3.1375423E-02
          -0.07   3.1386014E-02
 -6.0000000E-02   3.1396605E-02
 -5.0000000E-02   3.1407196E-02
 -4.0000000E-02   3.1417787E-02
 -3.0000000E-02   3.1428378E-02
          -0.02   3.1438969E-02
          -0.01   3.1449560E-02
              0   3.1460151E-02
           0.01   3.1449478E-02
           0.02   3.1438809E-02
           0.03   3.1428136E-02
           0.04   3.1417463E-02
           0.05   3.1406794E-02
  6.0000000E-02   3.1396121E-02
  7.0000000E-02   3.1385448E-02
  8.0000000E-02   3.1374779E-02
  9.0000000E-02   3.1362832E-02
            0.1   3.1331211E-02
           0.11   3.1299595E-02
           0.12   3.1267975E-02
           0.13   3.1236358E-02
           0.14   3.1204738E-02
           0.15   3.1173119E-02
           0.16   3.1141501E-02
           0.17   3.1109883E-02
           0.18   3.1075824E-02
           0.19   3.1024143E-02
            0.2   3.0972462E-02
           0.21   3.0920781E-02
           0.22   3.0869100E-02
           0.23   3.0817419E-02
           0.24   3.0765738E-02
           0.25   3.0714057E-02
           0.26   3.0662376E-02
           0.27   3.0605933E-02
           0.28   3.0528132E-02
           0.29   3.0450333E-02
            0.3   3.0372532E-02
           0.31   3.0294733E-02
           0.32   3.0216932E-02
           0.33   3.0139133E-02
           0.34   3.0061333E-02
           0.35   2.9983534E-02
           0.36   2.9905733E-02
           0.37   2.9827934E-02
           0.38   2.9750133E-02
           0.39   2.9672334E-02
            0.4   2.9594533E-02
           0.41   2.9516734E-02
           0.42   2.9438933E-02
           0.43   2.9361134E-02
           0.44   2.9257655E-02
           0.45   2.9152129E-02
           0.46   2.9046601E-02
           0.47   2.8941073E-02
           0.48   2.8835544E-02
           0.49   2.8730016E-02
            0.5   2.8624488E-02
           0.51   2.8518962E-02
           0.52   2.8413434E-02
           0.53   2.8307905E-02
           0.54   2.8202377E-02
           0.55   2.8096849E-02
           0.56   2.7991323E-02
           0.57   2.7885795E-02
           0.58   2.7780266E-02
           0.59   2.7674738E-02
            0.6   2.7569210E-02
           0.61   2.7457006E-02
           0.62   2.7332511E-02
           0.63   2.7208013E-02
           0.64   2.7083518E-02
           0.65   2.6959023E-02
           0.66   2.6834525E-02
           0.67   2.6710030E-02
           0.68   2.6585532E-02
           0.69   2.6461037E-02
            0.7   2.6336541E-02
           0.71   2.6212044E-02
           0.72   2.6087549E-02
           0.73   2.5963051E-02
           0.74   2.5838556E-02
           0.75   2.5714060E-02
           0.76   2.5589563E-02
           0.77   2.5465067E-02
           0.78   2.5340572E-02
           0.79   2.5208794E-02
            0.8   2.5074936E-02
           0.81   2.4941079E-02
           0.82   2.4807222E-02
           0.83   2.4673365E-02
           0.84   2.4539508E-02
           0.85   2.4405651E-02
           0.86   2.4271794E-02
           0.87   2.4137937E-02
           0.88   2.4004079E-02
           0.89   2.3870222E-02
            0.9   2.3736365E-02
           0.91   2.3602506E-02
           0.92   2.3468649E-02
           0.93   2.3334792E-02
           0.94   2.3200937E-02
           0.95   2.3067079E-02
           0.96   2.2932960E-02
           0.97   2.2797814E-02
           0.98   2.2662669E-02
           0.99   2.2527525E-02
              1   2.2392379E-02
           1.01   2.2257235E-02
           1.02   2.2122091E-02
           1.03   2.1986946E-02
           1.04   2.1851802E-02
           1.05   2.1716656E-02
           1.06   2.1581512E-02
           1.07   2.1446366E-02
           1.08   2.1311222E-02
           1.09   2.1176077E-02
            1.1   2.1040931E-02
           1.11   2.0905787E-02
           1.12   2.0770643E-02
           1.13   2.0635499E-02
           1.14   2.0503305E-02
           1.15   2.0372845E-02
           1.16   2.0242387E-02
           1.17   2.0111928E-02
           1.18   1.9981470E-02
           1.19   1.9851008E-02
            1.2   1.9720549E-02
           1.21   1.9590091E-02
           1.22   1.9459631E-02
           1.23   1.9329173E-02
           1.24   1.9198714E-02
           1.25   1.9068254E-02
           1.26   1.8937796E-02
           1.27   1.8807337E-02
           1.28   1.8676879E-02
           1.29   1.8546419E-02
            1.3   1.8415960E-02
           1.31   1.8285979E-02
           1.32   1.8164093E-02
           1.33   1.8042207E-02
           1.34   1.7920323E-02
           1.35   1.7798437E-02
           1.36   1.7676553E-02
           1.37   1.7554667E-02
           1.38   1.7432783E-02
           1.39   1.7310897E-02
            1.4   1.7189013E-02
           1.41   1.7067127E-02
           1.42   1.6945243E-02
           1.43   1.6823357E-02
           1.44   1.6701471E-02
           1.45   1.6579585E-02
           1.46   1.6457701E-02
           1.47   1.6335815E-02
           1.48   1.6213931E-02
           1.49   1.6097207E-02
            1.5   1.5986038E-02
           1.51   1.5874868E-02
           1.52   1.5763700E-02
           1.53   1.5652532E-02
           1.54   1.5541363E-02
           1.55   1.5430193E-02
           1.56   1.5319025E-02
           1.57   1.5207855E-02
           1.58   1.5096686E-02
           1.59   1.4985517E-02
            1.6   1.4874348E-02
           1.61   1.4763179E-02
           1.62   1.4652011E-02
           1.63   1.4540842E-02
           1.64   1.4429674E-02
           1.65   1.4318504E-02
           1.66   1.4207335E-02
           1.67   1.4106628E-02
           1.68   1.4006986E-02
           1.69   1.3907344E-02
            1.7   1.3807703E-02
           1.71   1.3708062E-02
           1.72   1.3608420E-02
           1.73   1.3508779E-02
           1.74   1.3409138E-02
           1.75   1.3309496E-02
           1.76   1.3209855E-02
           1.77   1.3110213E-02
           1.78   1.3010572E-02
           1.79   1.2910930E-02
            1.8   1.2811289E-02
           1.81   1.2711648E-02
           1.82   1.2612006E-02
           1.83   1.2512364E-02
           1.84   1.2416531E-02
           1.85   1.2328314E-02
           1.86   1.2240096E-02
           1.87   1.2151877E-02
           1.88   1.2063660E-02
           1.89   1.1975442E-02
            1.9   1.1887224E-02
           1.91   1.1799006E-02
           1.92   1.1710788E-02
           1.93   1.1622570E-02
           1.94   1.1534351E-02
           1.95   1.1446133E-02
           1.96   1.1357915E-02
           1.97   1.1269697E-02
           1.98   1.1181479E-02
           1.99   1.1093261E-02
              2   1.1005043E-02
           2.01   1.0916825E-02
           2.02   1.0836806E-02
           2.03   1.0759384E-02
           2.04   1.0681964E-02
           2.05   1.0604542E-02
           2.06   1.0527120E-02
           2.07   1.0449699E-02
           2.08   1.0372277E-02
           2.09   1.0294857E-02
            2.1   1.0217435E-02
           2.11   1.0140014E-02
           2.12   1.0062592E-02
           2.13   9.9851685E-03
           2.14   9.9077476E-03
           2.15   9.8303258E-03
           2.16   9.7529050E-03
           2.17   9.6754832E-03
           2.18   9.5980614E-03
           2.19   9.5224641E-03
            2.2   9.4548864E-03
           2.21   9.3873097E-03
           2.22   9.3197320E-03
           2.23   9.2521543E-03
           2.24   9.1845766E-03
           2.25   9.1169989E-03
           2.26   9.0494221E-03
           2.27   8.9818444E-03
           2.28   8.9142667E-03
           2.29   8.8466890E-03
            2.3   8.7791122E-03
           2.31   8.7115346E-03
           2.32   8.6439569E-03
           2.33   8.5763792E-03
           2.34   8.5088015E-03
           2.35   8.4412247E-03
           2.36   8.3736470E-03
           2.37   8.3114337E-03
           2.38   8.2526328E-03
           2.39   8.1938319E-03
            2.4   8.1350319E-03
           2.41   8.0762319E-03
           2.42   8.0174319E-03
           2.43   7.9586320E-03
           2.44   7.8998320E-03
           2.45   7.8410320E-03
           2.46   7.7822320E-03
           2.47   7.7234320E-03
           2.48   7.6646321E-03
           2.49   7.6058321E-03
            2.5   7.5470321E-03
           2.51   7.4882321E-03
           2.52   7.4294321E-03
           2.53   7.3706321E-03
           2.54   7.3121185E-03
           2.55   7.2610341E-03
           2.56   7.2099501E-03
           2.57   7.1588662E-03
           2.58   7.1077817E-03
           2.59   7.0566977E-03
            2.6   7.0056138E-03
           2.61   6.9545293E-03
           2.62   6.9034453E-03
           2.63   6.8523600E-03
           2.64   6.8012760E-03
           2.65   6.7501916E-03
           2.66   6.6991076E-03
           2.67   6.6480236E-03
           2.68   6.5969396E-03
           2.69   6.5458552E-03
            2.7   6.4947712E-03
           2.71   6.4436868E-03
           2.72   6.3956967E-03
           2.73   6.3512940E-03
           2.74   6.3068913E-03
           2.75   6.2624891E-03
           2.76   6.2180865E-03
           2.77   6.1736838E-03
           2.78   6.1292811E-03
           2.79   6.0848785E-03
            2.8   6.0404763E-03
           2.81   5.9960736E-03
           2.82   5.9516709E-03
           2.83   5.9072683E-03
           2.84   5.8628656E-03
           2.85   5.8184634E-03
           2.86   5.7740607E-03
           2.87   5.7296581E-03
           2.88   5.6852545E-03
           2.89   5.6408518E-03
            2.9   5.6015630E-03
           2.91   5.5629127E-03
           2.92   5.5242628E-03
           2.93   5.4856124E-03
           2.94   5.4469625E-03
           2.95   5.4083122E-03
           2.96   5.3696618E-03
           2.97   5.3310120E-03
           2.98   5.2923616E-03
           2.99   5.2537117E-03
              3   5.2150614E-03
           3.01   5.1764110E-03
           3.02   5.1377611E-03
           3.03   5.0991108E-03
           3.04   5.0604609E-03
           3.05   5.0218105E-03
           3.06   4.9831602E-03
           3.07   4.9460637E-03
           3.08   4.9123475E-03
           3.09   4.8786318E-03
            3.1   4.8449156E-03
           3.11   4.8111994E-03
           3.12   4.7774832E-03
           3.13   4.7437665E-03
           3.14   4.7100503E-03
           3.15   4.6763341E-03
           3.16   4.6426179E-03
           3.17   4.6089021E-03
           3.18   4.5751859E-03
           3.19   4.5414697E-03
            3.2   4.5077535E-03
           3.21   4.4740373E-03
           3.22   4.4403216E-03
           3.23   4.4066054E-03
           3.24   4.3728892E-03
           3.25   4.3422789E-03
           3.26   4.3127560E-03
           3.27   4.2832326E-03
           3.28   4.2537097E-03
           3.29   4.2241863E-03
            3.3   4.1946629E-03
           3.31   4.1651400E-03
           3.32   4.1356166E-03
           3.33   4.1060932E-03
           3.34   4.0765703E-03
           3.35   4.0470469E-03
           3.36   4.0175240E-03
           3.37   3.9880006E-03
           3.38   3.9584767E-03
           3.39   3.9289533E-03
            3.4   3.8994302E-03
           3.41   3.8699070E-03
           3.42   3.8409762E-03
           3.43   3.8150051E-03
           3.44   3.7890340E-03
           3.45   3.7630631E-03
           3.46   3.7370920E-03
           3.47   3.7111212E-03
           3.48   3.6851501E-03
           3.49   3.6591792E-03
            3.5   3.6332081E-03
           3.51   3.6072372E-03
           3.52   3.5812662E-03
           3.53   3.5552951E-03
           3.54   3.5293242E-03
           3.55   3.5033531E-03
           3.56   3.4773822E-03
           3.57   3.4514111E-03
           3.58   3.4254403E-03
           3.59   3.3994692E-03
            3.6   3.3752809E-03
           3.61   3.3523182E-03
           3.62   3.3293553E-03
           3.63   3.3063919E-03
           3.64   3.2834292E-03
           3.65   3.2604663E-03
           3.66   3.2375033E-03
           3.67   3.2145407E-03
           3.68   3.1915777E-03
           3.69   3.1686150E-03
            3.7   3.1456521E-03
           3.71   3.1226892E-03
           3.72   3.0997265E-03
           3.73   3.0767636E-03
           3.74   3.0538007E-03
           3.75   3.0308380E-03
           3.76   3.0078751E-03
           3.77   2.9849592E-03
           3.78   2.9645278E-03
           3.79   2.9440965E-03
            3.8   2.9236649E-03
           3.81   2.9032335E-03
           3.82   2.8828022E-03
           3.83   2.8623706E-03
           3.84   2.8419392E-03
           3.85   2.8215079E-03
           3.86   2.8010763E-03
           3.87   2.7806449E-03
           3.88   2.7602131E-03
           3.89   2.7397815E-03
            3.9   2.7193502E-03
           3.91   2.6989188E-03
           3.92   2.6784875E-03
           3.93   2.6580559E-03
           3.94   2.6376245E-03
           3.95   2.6181361E-03
           3.96   2.5998263E-03
           3.97   2.5815165E-03
           3.98   2.5632067E-03
           3.99   2.5448969E-03
              4   2.5265871E-03
           4.01   2.5082768E-03
           4.02   2.4899675E-03
           4.03   2.4716575E-03
           4.04   2.4533481E-03
           4.05   2.4350379E-03
           4.06   2.4167285E-03
           4.07   2.3984183E-03
           4.08   2.3801089E-03
           4.09   2.3617987E-03
            4.1   2.3434893E-03
           4.11   2.3251791E-03
           4.12   2.3068697E-03
           4.13   2.2900919E-03
           4.14   2.2735430E-03
           4.15   2.2569934E-03
           4.16   2.2404448E-03
           4.17   2.2238952E-03
           4.18   2.2073463E-03
           4.19   2.1907967E-03
            4.2   2.1742478E-03
           4.21   2.1576982E-03
           4.22   2.1411495E-03
           4.23   2.1245999E-03
           4.24   2.1080510E-03
           4.25   2.0915014E-03
           4.26   2.0749518E-03
           4.27   2.0584029E-03
           4.28   2.0418533E-03
           4.29   2.0253046E-03
            4.3   2.0091832E-03
           4.31   1.9940797E-03
           4.32   1.9789755E-03
           4.33   1.9638720E-03
           4.34   1.9487679E-03
           4.35   1.9336644E-03
           4.36   1.9185602E-03
           4.37   1.9034568E-03
           4.38   1.8883526E-03
           4.39   1.8732491E-03
            4.4   1.8581448E-03
           4.41   1.8430414E-03
           4.42   1.8279372E-03
           4.43   1.8128337E-03
           4.44   1.7977294E-03
           4.45   1.7826260E-03
           4.46   1.7675217E-03
           4.47   1.7524182E-03
           4.48   1.7381592E-03
           4.49   1.7242258E-03
            4.5   1.7102918E-03
           4.51   1.6963577E-03
           4.52   1.6824245E-03
           4.53   1.6684904E-03
           4.54   1.6545570E-03
           4.55   1.6406230E-03
           4.56   1.6266896E-03
           4.57   1.6127556E-03
           4.58   1.5988222E-03
           4.59   1.5848882E-03
            4.6   1.5709548E-03
           4.61   1.5570207E-03
           4.62   1.5430873E-03
           4.63   1.5291533E-03
           4.64   1.5152199E-03
           4.65   1.5014219E-03
           4.66   1.4884064E-03
           4.67   1.4753905E-03
           4.68   1.4623750E-03
           4.69   1.4493591E-03
            4.7   1.4363437E-03
           4.71   1.4233277E-03
           4.72   1.4103123E-03
           4.73   1.3972963E-03
           4.74   1.3842809E-03
           4.75   1.3712649E-03
           4.76   1.3582489E-03
           4.77   1.3452335E-03
           4.78   1.3322175E-03
           4.79   1.3192020E-03
            4.8   1.3061861E-03
           4.81   1.2931706E-03
           4.82   1.2801547E-03
           4.83   1.2675363E-03
           4.84   1.2552120E-03
           4.85   1.2428883E-03
           4.86   1.2305640E-03
           4.87   1.2182402E-03
           4.88   1.2059159E-03
           4.89   1.1935922E-03
            4.9   1.1812679E-03
           4.91   1.1689442E-03
           4.92   1.1566199E-03
           4.93   1.1442961E-03
           4.94   1.1319718E-03
           4.95   1.1196481E-03
           4.96   1.1073238E-03
           4.97   1.0950001E-03
           4.98   1.0826758E-03
           4.99   1.0703520E-03
              5   1.0580277E-03
