# Version 1.0
# tree entry: B-Field (Ms)_Abs (X)

              0   7.4062310E-02
  9.9898366E-03   8.0784452E-02
  1.9979673E-02   8.7496578E-02
  2.9969510E-02   9.4208714E-02
  3.9959346E-02   1.0092084E-01
  4.9949183E-02   1.0763298E-01
  5.9939019E-02   1.1361535E-01
  6.9928856E-02   1.1957715E-01
  7.9918693E-02   1.2553896E-01
  8.9908529E-02   1.3150077E-01
  9.9898366E-02   1.3746257E-01
  1.0988820E-01   1.4252751E-01
  1.1987804E-01   1.4758816E-01
  1.2986788E-01   1.5264880E-01
  1.3985771E-01   1.5770943E-01
  1.4984755E-01   1.6274468E-01
  1.5983739E-01   1.6638321E-01
  1.6982722E-01   1.7002174E-01
  1.7981706E-01   1.7366028E-01
  1.8980689E-01   1.7729881E-01
  1.9979673E-01   1.8093736E-01
  2.0978657E-01   1.8457589E-01
  2.1977640E-01   1.8821442E-01
  2.2976624E-01   1.9185296E-01
  2.3975608E-01   1.9549149E-01
  2.4974591E-01   1.9780211E-01
  2.5973575E-01   1.9953334E-01
  2.6972559E-01   2.0126455E-01
  2.7971542E-01   2.0299577E-01
  2.8970526E-01   2.0472698E-01
  2.9969510E-01   2.0645822E-01
  3.0968493E-01   2.0818943E-01
  3.1967477E-01   2.0992065E-01
  3.2966461E-01   2.1165188E-01
  3.3965444E-01   2.1338309E-01
  3.4964428E-01   2.1381760E-01
  3.5963412E-01   2.1392274E-01
  3.6962395E-01   2.1402787E-01
  3.7961379E-01   2.1413301E-01
  3.8960363E-01   2.1423815E-01
  3.9959346E-01   2.1434329E-01
  4.0958330E-01   2.1444844E-01
  4.1957314E-01   2.1455356E-01
  4.2956297E-01   2.1465871E-01
  4.3955281E-01   2.1476385E-01
  4.4954265E-01   2.1383718E-01
  4.5953248E-01   2.1279419E-01
  4.6952232E-01   2.1175119E-01
  4.7951216E-01   2.1070820E-01
  4.8950199E-01   2.0966521E-01
  4.9949183E-01   2.0862220E-01
  5.0948166E-01   2.0757921E-01
  5.1947150E-01   2.0653622E-01
  5.2946134E-01   2.0549323E-01
  5.3945117E-01   2.0445024E-01
  5.4944101E-01   2.0272121E-01
  5.5943085E-01   2.0099214E-01
  5.6942068E-01   1.9926306E-01
  5.7941052E-01   1.9753398E-01
  5.8940036E-01   1.9580491E-01
  5.9939019E-01   1.9407583E-01
  6.0938003E-01   1.9234676E-01
  6.1936987E-01   1.9061767E-01
  6.2935970E-01   1.8888860E-01
  6.3934954E-01   1.8712754E-01
  6.4933938E-01   1.8508223E-01
  6.5932921E-01   1.8303692E-01
  6.6931905E-01   1.8099163E-01
  6.7930889E-01   1.7894631E-01
  6.8929872E-01   1.7690100E-01
  6.9928856E-01   1.7485570E-01
  7.0927840E-01   1.7281038E-01
  7.1926823E-01   1.7076508E-01
  7.2925807E-01   1.6871978E-01
  7.3924791E-01   1.6666219E-01
  7.4923774E-01   1.6455627E-01
  7.5922758E-01   1.6245034E-01
  7.6921742E-01   1.6034440E-01
  7.7920725E-01   1.5823848E-01
  7.8919709E-01   1.5613254E-01
  7.9918693E-01   1.5402661E-01
  8.0917676E-01   1.5192069E-01
  8.1916660E-01   1.4981473E-01
  8.2915644E-01   1.4770881E-01
  8.3914627E-01   1.4563247E-01
  8.4913611E-01   1.4362400E-01
  8.5912594E-01   1.4161553E-01
  8.6911578E-01   1.3960708E-01
  8.7910562E-01   1.3759861E-01
  8.8909545E-01   1.3559016E-01
  8.9908529E-01   1.3358169E-01
  9.0907513E-01   1.3157322E-01
  9.1906496E-01   1.2956477E-01
  9.2905480E-01   1.2755630E-01
  9.3904464E-01   1.2562094E-01
  9.4903447E-01   1.2379304E-01
  9.5902431E-01   1.2196514E-01
  9.6901415E-01   1.2013724E-01
  9.7900398E-01   1.1830935E-01
  9.8899382E-01   1.1648145E-01
  9.9898366E-01   1.1465354E-01
  1.0089735E+00   1.1282566E-01
  1.0189633E+00   1.1099775E-01
  1.0289532E+00   1.0916985E-01
  1.0389430E+00   1.0745011E-01
  1.0489328E+00   1.0583597E-01
  1.0589227E+00   1.0422181E-01
  1.0689125E+00   1.0260765E-01
  1.0789023E+00   1.0099348E-01
 1.088892185762   9.9379324E-02
  1.0988820E+00   9.7765156E-02
  1.1088719E+00   9.6151017E-02
  1.1188617E+00   9.4536856E-02
  1.1288515E+00   9.2922695E-02
  1.1388414E+00   9.1440797E-02
  1.1488312E+00   9.0044439E-02
  1.1588210E+00   8.8648088E-02
  1.1688109E+00   8.7251723E-02
  1.1788007E+00   8.5855365E-02
  1.1887906E+00   8.4458999E-02
  1.1987804E+00   8.3062633E-02
  1.2087702E+00   8.1666268E-02
  1.2187601E+00   8.0269925E-02
  1.2287499E+00   7.8873559E-02
  1.2387397E+00   7.7621005E-02
  1.2487296E+00   7.6427608E-02
  1.2587194E+00   7.5234211E-02
  1.2687092E+00   7.4040814E-02
  1.2786991E+00   7.2847432E-02
  1.2886889E+00   7.1654035E-02
  1.2986788E+00   7.0460638E-02
  1.3086686E+00   6.9267234E-02
  1.3186584E+00   6.8073837E-02
  1.3286483E+00   6.6880455E-02
  1.3386381E+00   6.5834982E-02
  1.3486279E+00   6.4824259E-02
  1.3586178E+00   6.3813535E-02
  1.3686076E+00   6.2802812E-02
  1.3785974E+00   6.1792085E-02
  1.3885873E+00   6.0781372E-02
  1.3985771E+00   5.9770649E-02
  1.4085670E+00   5.8759925E-02
  1.4185568E+00   5.7749198E-02
  1.4285466E+00   5.6738474E-02
  1.4385365E+00   5.5872508E-02
  1.4485263E+00   5.5020691E-02
  1.4585161E+00   5.4168866E-02
  1.4685060E+00   5.3317041E-02
  1.4784958E+00   5.2465216E-02
  1.4884856E+00   5.1613387E-02
  1.4984755E+00   5.0761574E-02
  1.5084653E+00   4.9909749E-02
  1.5184552E+00   4.9057920E-02
  1.5284450E+00   4.8207753E-02
  1.5384348E+00   4.7491342E-02
  1.5484247E+00   4.6774935E-02
  1.5584145E+00   4.6058532E-02
  1.5684043E+00   4.5342125E-02
  1.5783942E+00   4.4625714E-02
  1.5883840E+00   4.3909307E-02
  1.5983739E+00   4.3192897E-02
  1.6083637E+00   4.2476497E-02
  1.6183535E+00   4.1760087E-02
  1.6283434E+00   4.1056700E-02
  1.6383332E+00   4.0455073E-02
  1.6483230E+00   3.9853442E-02
  1.6583129E+00   3.9251811E-02
  1.6683027E+00   3.8650188E-02
  1.6782925E+00   3.8048557E-02
  1.6882824E+00   3.7446930E-02
  1.6982722E+00   3.6845300E-02
  1.7082621E+00   3.6243669E-02
  1.7182519E+00   3.5642038E-02
  1.7282417E+00   3.5060964E-02
  1.7382316E+00   3.4555032E-02
  1.7482214E+00   3.4049104E-02
  1.7582112E+00   3.3543176E-02
  1.7682011E+00   3.3037248E-02
  1.7781909E+00   3.2531327E-02
  1.7881807E+00   3.2025399E-02
  1.7981706E+00   3.1519471E-02
  1.8081604E+00   3.1013541E-02
  1.8181503E+00   3.0507612E-02
  1.8281401E+00   3.0026909E-02
  1.8381299E+00   2.9600833E-02
  1.8481198E+00   2.9174751E-02
  1.8581096E+00   2.8748667E-02
  1.8680994E+00   2.8322585E-02
  1.8780893E+00   2.7896503E-02
  1.8880791E+00   2.7470421E-02
  1.8980689E+00   2.7044343E-02
  1.9080588E+00   2.6618261E-02
  1.9180486E+00   2.6192179E-02
  1.9280385E+00   2.5793944E-02
  1.9380283E+00   2.5434615E-02
  1.9480181E+00   2.5075292E-02
  1.9580080E+00   2.4715966E-02
  1.9679978E+00   2.4356637E-02
  1.9779876E+00   2.3997310E-02
  1.9879775E+00   2.3637982E-02
  1.9979673E+00   2.3278655E-02
  2.0079571E+00   2.2919327E-02
  2.0179470E+00   2.2560004E-02
  2.0279368E+00   2.2229273E-02
  2.0379267E+00   2.1925119E-02
  2.0479165E+00   2.1620966E-02
  2.0579063E+00   2.1316806E-02
  2.0678962E+00   2.1012652E-02
  2.0778860E+00   2.0708492E-02
  2.0878758E+00   2.0404338E-02
 2.097865678991   2.0100185E-02
  2.1078555E+00   1.9796025E-02
  2.1178454E+00   1.9491871E-02
  2.1278352E+00   1.9216155E-02
  2.1378250E+00   1.8957907E-02
  2.1478149E+00   1.8699659E-02
  2.1578047E+00   1.8441405E-02
  2.1677945E+00   1.8183158E-02
  2.1777844E+00   1.7924904E-02
  2.1877742E+00   1.7666656E-02
  2.1977640E+00   1.7408402E-02
  2.2077539E+00   1.7150156E-02
  2.2177437E+00   1.6891907E-02
  2.2277336E+00   1.6661329E-02
  2.2377234E+00   1.6441473E-02
  2.2477132E+00   1.6221612E-02
  2.2577031E+00   1.6001757E-02
  2.2676929E+00   1.5781899E-02
  2.2776827E+00   1.5562039E-02
  2.2876726E+00   1.5342183E-02
  2.2976624E+00   1.5122322E-02
  2.3076522E+00   1.4902466E-02
  2.3176421E+00   1.4682611E-02
  2.3276319E+00   1.4488887E-02
  2.3376218E+00   1.4300826E-02
  2.3476116E+00   1.4112761E-02
  2.3576014E+00   1.3924700E-02
  2.3675913E+00   1.3736634E-02
  2.3775811E+00   1.3548573E-02
  2.3875709E+00   1.3360512E-02
  2.3975608E+00   1.3172448E-02
  2.4075506E+00   1.2984387E-02
  2.4175404E+00   1.2796321E-02
  2.4275303E+00   1.2632854E-02
  2.4375201E+00   1.2471429E-02
  2.4475100E+00   1.2310000E-02
  2.4574998E+00   1.2148575E-02
  2.4674896E+00   1.1987146E-02
  2.4774795E+00   1.1825722E-02
  2.4874693E+00   1.1664296E-02
  2.4974591E+00   1.1502867E-02
  2.5074490E+00   1.1341442E-02
  2.5174388E+00   1.1180565E-02
  2.5274287E+00   1.1041590E-02
  2.5374185E+00   1.0902612E-02
  2.5474083E+00   1.0763639E-02
  2.5573982E+00   1.0624665E-02
  2.5673880E+00   1.0485687E-02
  2.5773778E+00   1.0346712E-02
  2.5873677E+00   1.0207735E-02
  2.5973575E+00   1.0068761E-02
  2.6073473E+00   9.9297863E-03
  2.6173372E+00   9.7931473E-03
  2.6273270E+00   9.6727618E-03
  2.6373169E+00   9.5523725E-03
  2.6473067E+00   9.4319869E-03
  2.6572965E+00   9.3116014E-03
  2.6672864E+00   9.1912121E-03
  2.6772762E+00   9.0708266E-03
  2.6872660E+00   8.9504382E-03
  2.6972559E+00   8.8300527E-03
  2.7072457E+00   8.7096634E-03
  2.7172355E+00   8.5928243E-03
  2.7272254E+00   8.4880589E-03
  2.7372152E+00   8.3832925E-03
  2.7472051E+00   8.2785281E-03
  2.7571949E+00   8.1737608E-03
  2.7671847E+00   8.0689963E-03
  2.7771746E+00   7.9642318E-03
  2.7871644E+00   7.8594645E-03
  2.7971542E+00   7.7547000E-03
  2.8071441E+00   7.6499327E-03
  2.8171339E+00   7.5495655E-03
  2.8271237E+00   7.4581976E-03
  2.8371136E+00   7.3668279E-03
  2.8471034E+00   7.2754600E-03
  2.8570933E+00   7.1840903E-03
  2.8670831E+00   7.0927228E-03
  2.8770729E+00   7.0013526E-03
  2.8870628E+00   6.9099852E-03
  2.8970526E+00   6.8186174E-03
  2.9070424E+00   6.7272476E-03
  2.9170323E+00   6.6407035E-03
  2.9270221E+00   6.5605660E-03
  2.9370120E+00   6.4804304E-03
  2.9470018E+00   6.4002947E-03
  2.9569916E+00   6.3201572E-03
  2.9669815E+00   6.2400215E-03
  2.9769713E+00   6.1598840E-03
  2.9869611E+00   6.0797483E-03
  2.9969510E+00   5.9996127E-03
  3.0069408E+00   5.9194752E-03
  3.0169306E+00   5.8442751E-03
  3.0269205E+00   5.7734382E-03
  3.0369103E+00   5.7026032E-03
  3.0469002E+00   5.6317677E-03
  3.0568900E+00   5.5609313E-03
  3.0668798E+00   5.4900958E-03
  3.0768697E+00   5.4192589E-03
  3.0868595E+00   5.3484239E-03
  3.0968493E+00   5.2775866E-03
  3.1068392E+00   5.2067516E-03
  3.1168290E+00   5.1408861E-03
  3.1268188E+00   5.0779138E-03
  3.1368087E+00   5.0149429E-03
  3.1467985E+00   4.9519706E-03
  3.1567884E+00   4.8890001E-03
  3.1667782E+00   4.8260292E-03
  3.1767680E+00   4.7630569E-03
 3.186757864753   4.7000860E-03
  3.1967477E+00   4.6371136E-03
  3.2067375E+00   4.5741432E-03
  3.2167274E+00   4.5162354E-03
  3.2267172E+00   4.4601693E-03
  3.2367070E+00   4.4041046E-03
  3.2466969E+00   4.3480385E-03
  3.2566867E+00   4.2919738E-03
  3.2666766E+00   4.2359077E-03
  3.2766664E+00   4.1798431E-03
  3.2866562E+00   4.1237784E-03
  3.2966461E+00   4.0677123E-03
  3.3066359E+00   4.0116476E-03
  3.3166257E+00   3.9602954E-03
  3.3266156E+00   3.9098805E-03
  3.3366054E+00   3.8594652E-03
  3.3465952E+00   3.8090490E-03
  3.3565851E+00   3.7586340E-03
  3.3665749E+00   3.7082177E-03
  3.3765648E+00   3.6578027E-03
  3.3865546E+00   3.6073876E-03
  3.3965444E+00   3.5569714E-03
  3.4065343E+00   3.5065563E-03
  3.4165241E+00   3.4603122E-03
  3.4265139E+00   3.4143563E-03
  3.4365038E+00   3.3683993E-03
  3.4464936E+00   3.3224434E-03
  3.4564835E+00   3.2764872E-03
  3.4664733E+00   3.2305304E-03
  3.4764631E+00   3.1845743E-03
  3.4864530E+00   3.1386175E-03
  3.4964428E+00   3.0926616E-03
  3.5064326E+00   3.0468498E-03
  3.5164225E+00   3.0048113E-03
  3.5264123E+00   2.9627737E-03
  3.5364021E+00   2.9207350E-03
  3.5463920E+00   2.8786974E-03
  3.5563818E+00   2.8366598E-03
  3.5663717E+00   2.7946213E-03
  3.5763615E+00   2.7525837E-03
  3.5863513E+00   2.7105450E-03
  3.5963412E+00   2.6685074E-03
  3.6063310E+00   2.6269253E-03
  3.6163208E+00   2.5881932E-03
  3.6263107E+00   2.5494611E-03
  3.6363005E+00   2.5107281E-03
  3.6462903E+00   2.4719960E-03
  3.6562802E+00   2.4332630E-03
  3.6662700E+00   2.3945310E-03
  3.6762599E+00   2.3557989E-03
  3.6862497E+00   2.3170659E-03
  3.6962395E+00   2.2783336E-03
  3.7062294E+00   2.2402264E-03
  3.7162192E+00   2.2041098E-03
  3.7262090E+00   2.1679928E-03
  3.7361989E+00   2.1318752E-03
  3.7461887E+00   2.0957583E-03
  3.7561785E+00   2.0596405E-03
  3.7661684E+00   2.0235238E-03
  3.7761582E+00   1.9874059E-03
  3.7861481E+00   1.9512891E-03
  3.7961379E+00   1.9151723E-03
  3.8061277E+00   1.8797325E-03
  3.8161176E+00   1.8456065E-03
  3.8261074E+00   1.8114796E-03
  3.8360972E+00   1.7773536E-03
  3.8460871E+00   1.7432275E-03
  3.8560769E+00   1.7091007E-03
  3.8660668E+00   1.6749746E-03
  3.8760566E+00   1.6408478E-03
  3.8860464E+00   1.6067218E-03
  3.8960363E+00   1.5725957E-03
  3.9060261E+00   1.5390721E-03
  3.9160159E+00   1.5063116E-03
  3.9260058E+00   1.4735502E-03
  3.9359956E+00   1.4407896E-03
  3.9459854E+00   1.4080283E-03
  3.9559753E+00   1.3752677E-03
  3.9659651E+00   1.3425071E-03
  3.9759550E+00   1.3097458E-03
  3.9859448E+00   1.2769853E-03
  3.9959346E+00   1.2442239E-03
  4.0059245E+00               0
  4.0159143E+00               0
  4.0259041E+00               0
  4.0358940E+00               0
  4.0458838E+00               0
  4.0558736E+00               0
  4.0658635E+00               0
  4.0758533E+00               0
  4.0858432E+00               0
  4.0958330E+00               0
  4.1058228E+00               0
  4.1158127E+00               0
  4.1258025E+00               0
  4.1357923E+00               0
  4.1457822E+00               0
  4.1557720E+00               0
  4.1657618E+00               0
  4.1757517E+00               0
  4.1857415E+00               0
 4.195731357982               0
  4.2057212E+00               0
  4.2157110E+00               0
  4.2257009E+00               0
  4.2356907E+00               0
  4.2456805E+00               0
  4.2556704E+00               0
  4.2656602E+00               0
  4.2756501E+00               0
  4.2856399E+00               0
  4.2956297E+00               0
  4.3056196E+00               0
  4.3156094E+00               0
  4.3255992E+00               0
  4.3355891E+00               0
  4.3455789E+00               0
  4.3555687E+00               0
  4.3655586E+00               0
  4.3755484E+00               0
  4.3855383E+00               0
  4.3955281E+00               0
  4.4055179E+00               0
  4.4155078E+00               0
  4.4254976E+00               0
  4.4354874E+00               0
  4.4454773E+00               0
