# Version 1.0
# tree entry: B-Field (Ms)_Abs (X)

              0   1.2065814E+00
  9.9898366E-03   1.2062184E+00
  1.9979673E-02   1.2058072E+00
  2.9969510E-02   1.2053959E+00
  3.9959346E-02   1.2049848E+00
  4.9949183E-02   1.2045736E+00
  5.9939019E-02   1.2023022E+00
  6.9928856E-02   1.1999785E+00
  7.9918693E-02   1.1976547E+00
  8.9908529E-02   1.1953310E+00
  9.9898366E-02   1.1930072E+00
  1.0988820E-01   1.1888868E+00
  1.1987804E-01   1.1847578E+00
  1.2986788E-01   1.1806288E+00
  1.3985771E-01   1.1764997E+00
  1.4984755E-01   1.1723287E+00
  1.5983739E-01   1.1658497E+00
  1.6982722E-01   1.1593708E+00
  1.7981706E-01   1.1528918E+00
  1.8980689E-01   1.1464127E+00
  1.9979673E-01   1.1399338E+00
  2.0978657E-01   1.1334548E+00
  2.1977640E-01   1.1269758E+00
  2.2976624E-01   1.1204969E+00
  2.3975608E-01   1.1140179E+00
  2.4974591E-01   1.1059284E+00
  2.5973575E-01   1.0971364E+00
  2.6972559E-01   1.0883442E+00
  2.7971542E-01   1.0795522E+00
  2.8970526E-01   1.0707602E+00
  2.9969510E-01   1.0619680E+00
  3.0968493E-01   1.0531759E+00
  3.1967477E-01   1.0443838E+00
  3.2966461E-01   1.0355917E+00
  3.3965444E-01   1.0267996E+00
  3.4964428E-01   1.0169311E+00
  3.5963412E-01   1.0067891E+00
  3.6962395E-01   9.9664715E-01
  3.7961379E-01   9.8650518E-01
  3.8960363E-01   9.7636327E-01
  3.9959346E-01   9.6622125E-01
  4.0958330E-01   9.5607934E-01
  4.1957314E-01   9.4593737E-01
  4.2956297E-01   9.3579540E-01
  4.3955281E-01   9.2565343E-01
  4.4954265E-01   9.1512582E-01
  4.5953248E-01   9.0455476E-01
  4.6952232E-01   8.9398358E-01
  4.7951216E-01   8.8341252E-01
  4.8950199E-01   8.7284140E-01
  4.9949183E-01   8.6227028E-01
  5.0948166E-01   8.5169921E-01
  5.1947150E-01   8.4112809E-01
  5.2946134E-01   8.3055703E-01
  5.3945117E-01   8.1998591E-01
  5.4944101E-01   8.0968033E-01
  5.5943085E-01   7.9937480E-01
  5.6942068E-01   7.8906922E-01
  5.7941052E-01   7.7876369E-01
  5.8940036E-01   7.6845811E-01
  5.9939019E-01   7.5815253E-01
  6.0938003E-01   7.4784700E-01
  6.1936987E-01   7.3754142E-01
  6.2935970E-01   7.2723584E-01
  6.3934954E-01   7.1700226E-01
  6.4933938E-01   7.0740764E-01
  6.5932921E-01   6.9781302E-01
  6.6931905E-01   6.8821846E-01
  6.7930889E-01   6.7862390E-01
  6.8929872E-01   6.6902928E-01
  6.9928856E-01   6.5943472E-01
  7.0927840E-01   6.4984010E-01
  7.1926823E-01   6.4024554E-01
  7.2925807E-01   6.3065098E-01
  7.3924791E-01   6.2124817E-01
  7.4923774E-01   6.1260126E-01
  7.5922758E-01   6.0395436E-01
  7.6921742E-01   5.9530745E-01
  7.7920725E-01   5.8666060E-01
  7.8919709E-01   5.7801370E-01
  7.9918693E-01   5.6936673E-01
  8.0917676E-01   5.6071989E-01
  8.1916660E-01   5.5207298E-01
  8.2915644E-01   5.4342608E-01
  8.3914627E-01   5.3509168E-01
  8.4913611E-01   5.2747391E-01
  8.5912594E-01   5.1985613E-01
  8.6911578E-01   5.1223836E-01
  8.7910562E-01   5.0462059E-01
  8.8909545E-01   4.9700288E-01
  8.9908529E-01   4.8938510E-01
  9.0907513E-01   4.8176733E-01
  9.1906496E-01   4.7414959E-01
  9.2905480E-01   4.6653182E-01
  9.3904464E-01   4.5932326E-01
  9.4903447E-01   4.5271632E-01
  9.5902431E-01   4.4610933E-01
  9.6901415E-01   4.3950236E-01
  9.7900398E-01   4.3289542E-01
  9.8899382E-01   4.2628846E-01
  9.9898366E-01   4.1968149E-01
  1.0089735E+00   4.1307455E-01
  1.0189633E+00   4.0646759E-01
  1.0289532E+00   3.9986059E-01
  1.0389430E+00   3.9372778E-01
  1.0489328E+00   3.8805780E-01
  1.0589227E+00   3.8238776E-01
  1.0689125E+00   3.7671771E-01
  1.0789023E+00   3.7104764E-01
 1.088892185762   3.6537760E-01
  1.0988820E+00   3.5970756E-01
  1.1088719E+00   3.5403758E-01
  1.1188617E+00   3.4836754E-01
  1.1288515E+00   3.4269750E-01
  1.1388414E+00   3.3753523E-01
  1.1488312E+00   3.3270132E-01
  1.1588210E+00   3.2786747E-01
  1.1688109E+00   3.2303360E-01
  1.1788007E+00   3.1819969E-01
  1.1887906E+00   3.1336578E-01
  1.1987804E+00   3.0853187E-01
  1.2087702E+00   3.0369797E-01
  1.2187601E+00   2.9886412E-01
  1.2287499E+00   2.9403021E-01
  1.2387397E+00   2.8971245E-01
  1.2487296E+00   2.8560703E-01
  1.2587194E+00   2.8150161E-01
  1.2687092E+00   2.7739619E-01
  1.2786991E+00   2.7329080E-01
  1.2886889E+00   2.6918538E-01
  1.2986788E+00   2.6507993E-01
  1.3086686E+00   2.6097452E-01
  1.3186584E+00   2.5686910E-01
  1.3286483E+00   2.5276371E-01
  1.3386381E+00   2.4916379E-01
  1.3486279E+00   2.4568264E-01
  1.3586178E+00   2.4220148E-01
  1.3686076E+00   2.3872033E-01
  1.3785974E+00   2.3523918E-01
  1.3885873E+00   2.3175806E-01
  1.3985771E+00   2.2827691E-01
  1.4085670E+00   2.2479576E-01
  1.4185568E+00   2.2131459E-01
  1.4285466E+00   2.1783344E-01
  1.4385365E+00   2.1483509E-01
  1.4485263E+00   2.1188395E-01
  1.4585161E+00   2.0893277E-01
  1.4685060E+00   2.0598160E-01
  1.4784958E+00   2.0303041E-01
  1.4884856E+00   2.0007923E-01
  1.4984755E+00   1.9712809E-01
  1.5084653E+00   1.9417690E-01
  1.5184552E+00   1.9122572E-01
  1.5284450E+00   1.8828000E-01
  1.5384348E+00   1.8577522E-01
  1.5484247E+00   1.8327044E-01
  1.5584145E+00   1.8076569E-01
  1.5684043E+00   1.7826090E-01
  1.5783942E+00   1.7575614E-01
  1.5883840E+00   1.7325136E-01
  1.5983739E+00   1.7074658E-01
  1.6083637E+00   1.6824182E-01
  1.6183535E+00   1.6573704E-01
  1.6283434E+00   1.6327476E-01
  1.6383332E+00   1.6114451E-01
  1.6483230E+00   1.5901425E-01
  1.6583129E+00   1.5688398E-01
  1.6683027E+00   1.5475375E-01
  1.6782925E+00   1.5262350E-01
  1.6882824E+00   1.5049324E-01
  1.6982722E+00   1.4836297E-01
  1.7082621E+00   1.4623272E-01
  1.7182519E+00   1.4410246E-01
  1.7282417E+00   1.4203974E-01
  1.7382316E+00   1.4022394E-01
  1.7482214E+00   1.3840815E-01
  1.7582112E+00   1.3659235E-01
  1.7682011E+00   1.3477656E-01
  1.7781909E+00   1.3296079E-01
  1.7881807E+00   1.3114499E-01
  1.7981706E+00   1.2932920E-01
  1.8081604E+00   1.2751340E-01
  1.8181503E+00   1.2569761E-01
  1.8281401E+00   1.2396490E-01
  1.8381299E+00   1.2241211E-01
  1.8481198E+00   1.2085930E-01
  1.8581096E+00   1.1930650E-01
  1.8680994E+00   1.1775368E-01
  1.8780893E+00   1.1620088E-01
  1.8880791E+00   1.1464807E-01
  1.8980689E+00   1.1309528E-01
  1.9080588E+00   1.1154248E-01
  1.9180486E+00   1.0998966E-01
  1.9280385E+00   1.0852889E-01
  1.9380283E+00   1.0719669E-01
  1.9480181E+00   1.0586451E-01
  1.9580080E+00   1.0453231E-01
  1.9679978E+00   1.0320011E-01
  1.9779876E+00   1.0186792E-01
  1.9879775E+00   1.0053572E-01
  1.9979673E+00   9.9203525E-02
  2.0079571E+00   9.7871331E-02
  2.0179470E+00   9.6539145E-02
  2.0279368E+00   9.5303086E-02
  2.0379267E+00   9.4156390E-02
  2.0479165E+00   9.3009693E-02
  2.0579063E+00   9.1862974E-02
  2.0678962E+00   9.0716278E-02
  2.0778860E+00   8.9569551E-02
  2.0878758E+00   8.8422855E-02
 2.097865678991   8.7276158E-02
  2.1078555E+00   8.6129432E-02
  2.1178454E+00   8.4982735E-02
  2.1278352E+00   8.3932471E-02
  2.1378250E+00   8.2941440E-02
  2.1478149E+00   8.1950416E-02
  2.1578047E+00   8.0959369E-02
  2.1677945E+00   7.9968338E-02
  2.1777844E+00   7.8977291E-02
  2.1877742E+00   7.7986267E-02
  2.1977640E+00   7.6995213E-02
  2.2077539E+00   7.6004189E-02
  2.2177437E+00   7.5013165E-02
  2.2277336E+00   7.4116800E-02
  2.2377234E+00   7.3257130E-02
  2.2477132E+00   7.2397437E-02
  2.2577031E+00   7.1537767E-02
  2.2676929E+00   7.0678089E-02
  2.2776827E+00   6.9818403E-02
  2.2876726E+00   6.8958726E-02
  2.2976624E+00   6.8099040E-02
  2.3076522E+00   6.7239362E-02
  2.3176421E+00   6.6379692E-02
  2.3276319E+00   6.5611366E-02
  2.3376218E+00   6.4862828E-02
  2.3476116E+00   6.4114276E-02
  2.3576014E+00   6.3365738E-02
  2.3675913E+00   6.2617186E-02
  2.3775811E+00   6.1868645E-02
  2.3875709E+00   6.1120111E-02
  2.3975608E+00   6.0371555E-02
  2.4075506E+00   5.9623021E-02
  2.4175404E+00   5.8874465E-02
  2.4275303E+00   5.8212741E-02
  2.4375201E+00   5.7558223E-02
  2.4475100E+00   5.6903693E-02
  2.4574998E+00   5.6249174E-02
  2.4674896E+00   5.5594644E-02
  2.4774795E+00   5.4940130E-02
  2.4874693E+00   5.4285611E-02
  2.4974591E+00   5.3631081E-02
  2.5074490E+00   5.2976566E-02
  2.5174388E+00   5.2323992E-02
  2.5274287E+00   5.1749303E-02
  2.5374185E+00   5.1174602E-02
  2.5474083E+00   5.0599913E-02
  2.5573982E+00   5.0025223E-02
  2.5673880E+00   4.9450523E-02
  2.5773778E+00   4.8875833E-02
  2.5873677E+00   4.8301129E-02
  2.5973575E+00   4.7726440E-02
  2.6073473E+00   4.7151754E-02
  2.6173372E+00   4.6585592E-02
  2.6273270E+00   4.6078826E-02
  2.6373169E+00   4.5572048E-02
  2.6473067E+00   4.5065286E-02
  2.6572965E+00   4.4558520E-02
  2.6672864E+00   4.4051742E-02
  2.6772762E+00   4.3544976E-02
  2.6872660E+00   4.3038199E-02
  2.6972559E+00   4.2531433E-02
  2.7072457E+00   4.2024655E-02
  2.7172355E+00   4.1531032E-02
  2.7272254E+00   4.1082153E-02
  2.7372152E+00   4.0633263E-02
  2.7472051E+00   4.0184388E-02
  2.7571949E+00   3.9735498E-02
  2.7671847E+00   3.9286623E-02
  2.7771746E+00   3.8837744E-02
  2.7871644E+00   3.8388854E-02
  2.7971542E+00   3.7939979E-02
  2.8071441E+00   3.7491089E-02
  2.8171339E+00   3.7058456E-02
  2.8271237E+00   3.6659075E-02
  2.8371136E+00   3.6259679E-02
  2.8471034E+00   3.5860294E-02
  2.8570933E+00   3.5460902E-02
  2.8670831E+00   3.5061517E-02
  2.8770729E+00   3.4662125E-02
  2.8870628E+00   3.4262741E-02
  2.8970526E+00   3.3863356E-02
  2.9070424E+00   3.3463964E-02
  2.9170323E+00   3.3082759E-02
  2.9270221E+00   3.2725697E-02
  2.9370120E+00   3.2368647E-02
  2.9470018E+00   3.2011592E-02
  2.9569916E+00   3.1654534E-02
  2.9669815E+00   3.1297480E-02
  2.9769713E+00   3.0940421E-02
  2.9869611E+00   3.0583368E-02
  2.9969510E+00   3.0226318E-02
  3.0069408E+00   2.9869256E-02
  3.0169306E+00   2.9531378E-02
  3.0269205E+00   2.9210450E-02
  3.0369103E+00   2.8889527E-02
  3.0469002E+00   2.8568606E-02
  3.0568900E+00   2.8247678E-02
  3.0668798E+00   2.7926756E-02
  3.0768697E+00   2.7605827E-02
  3.0868595E+00   2.7284905E-02
  3.0968493E+00   2.6963977E-02
  3.1068392E+00   2.6643054E-02
  3.1168290E+00   2.6341615E-02
  3.1268188E+00   2.6051517E-02
  3.1368087E+00   2.5761425E-02
  3.1467985E+00   2.5471325E-02
  3.1567884E+00   2.5181233E-02
  3.1667782E+00   2.4891143E-02
  3.1767680E+00   2.4601044E-02
 3.186757864753   2.4310951E-02
  3.1967477E+00   2.4020852E-02
  3.2067375E+00   2.3730762E-02
  3.2167274E+00   2.3460062E-02
  3.2267172E+00   2.3196413E-02
  3.2367070E+00   2.2932771E-02
  3.2466969E+00   2.2669123E-02
  3.2566867E+00   2.2405482E-02
  3.2666766E+00   2.2141834E-02
  3.2766664E+00   2.1878191E-02
  3.2866562E+00   2.1614549E-02
  3.2966461E+00   2.1350903E-02
  3.3066359E+00   2.1087260E-02
  3.3166257E+00   2.0842436E-02
  3.3266156E+00   2.0601354E-02
  3.3366054E+00   2.0360272E-02
  3.3465952E+00   2.0119184E-02
  3.3565851E+00   1.9878102E-02
  3.3665749E+00   1.9637012E-02
  3.3765648E+00   1.9395930E-02
  3.3865546E+00   1.9154848E-02
  3.3965444E+00   1.8913760E-02
  3.4065343E+00   1.8672678E-02
  3.4165241E+00   1.8449239E-02
  3.4265139E+00   1.8227019E-02
  3.4365038E+00   1.8004795E-02
  3.4464936E+00   1.7782576E-02
  3.4564835E+00   1.7560355E-02
  3.4664733E+00   1.7338130E-02
  3.4764631E+00   1.7115911E-02
  3.4864530E+00   1.6893686E-02
  3.4964428E+00   1.6671467E-02
  3.5064326E+00   1.6449829E-02
  3.5164225E+00   1.6243410E-02
  3.5264123E+00   1.6036998E-02
  3.5364021E+00   1.5830581E-02
  3.5463920E+00   1.5624168E-02
  3.5563818E+00   1.5417755E-02
  3.5663717E+00   1.5211337E-02
  3.5763615E+00   1.5004925E-02
  3.5863513E+00   1.4798507E-02
  3.5963412E+00   1.4592094E-02
  3.6063310E+00   1.4387511E-02
  3.6163208E+00   1.4194382E-02
  3.6263107E+00   1.4001254E-02
  3.6363005E+00   1.3808121E-02
  3.6462903E+00   1.3614993E-02
  3.6562802E+00   1.3421859E-02
  3.6662700E+00   1.3228730E-02
  3.6762599E+00   1.3035602E-02
  3.6862497E+00   1.2842469E-02
  3.6962395E+00   1.2649341E-02
  3.7062294E+00   1.2458799E-02
  3.7162192E+00   1.2276498E-02
  3.7262090E+00   1.2094197E-02
  3.7361989E+00   1.1911892E-02
  3.7461887E+00   1.1729591E-02
  3.7561785E+00   1.1547285E-02
  3.7661684E+00   1.1364985E-02
  3.7761582E+00   1.1182679E-02
  3.7861481E+00   1.1000378E-02
  3.7961379E+00   1.0818078E-02
  3.8061277E+00   1.0638642E-02
  3.8161176E+00   1.0464768E-02
  3.8261074E+00   1.0290890E-02
  3.8360972E+00   1.0117016E-02
  3.8460871E+00   9.9431429E-03
  3.8560769E+00   9.7692650E-03
  3.8660668E+00   9.5953908E-03
  3.8760566E+00   9.4215129E-03
  3.8860464E+00   9.2476387E-03
  3.8960363E+00   9.0737646E-03
  3.9060261E+00   8.9026918E-03
  3.9160159E+00   8.7351674E-03
  3.9260058E+00   8.5676402E-03
  3.9359956E+00   8.4001157E-03
  3.9459854E+00   8.2325876E-03
  3.9559753E+00   8.0650632E-03
  3.9659651E+00   7.8975397E-03
  3.9759550E+00   7.7300115E-03
  3.9859448E+00   7.5624871E-03
  3.9959346E+00   7.3949590E-03
  4.0059245E+00               0
  4.0159143E+00               0
  4.0259041E+00               0
  4.0358940E+00               0
  4.0458838E+00               0
  4.0558736E+00               0
  4.0658635E+00               0
  4.0758533E+00               0
  4.0858432E+00               0
  4.0958330E+00               0
  4.1058228E+00               0
  4.1158127E+00               0
  4.1258025E+00               0
  4.1357923E+00               0
  4.1457822E+00               0
  4.1557720E+00               0
  4.1657618E+00               0
  4.1757517E+00               0
  4.1857415E+00               0
 4.195731357982               0
  4.2057212E+00               0
  4.2157110E+00               0
  4.2257009E+00               0
  4.2356907E+00               0
  4.2456805E+00               0
  4.2556704E+00               0
  4.2656602E+00               0
  4.2756501E+00               0
  4.2856399E+00               0
  4.2956297E+00               0
  4.3056196E+00               0
  4.3156094E+00               0
  4.3255992E+00               0
  4.3355891E+00               0
  4.3455789E+00               0
  4.3555687E+00               0
  4.3655586E+00               0
  4.3755484E+00               0
  4.3855383E+00               0
  4.3955281E+00               0
  4.4055179E+00               0
  4.4155078E+00               0
  4.4254976E+00               0
  4.4354874E+00               0
  4.4454773E+00               0
