# Version 1.0
# tree entry: B-Field (Ms)_Abs (X)

              0   1.2627134E+00
  9.9898366E-03   1.2612387E+00
  1.9979673E-02   1.2596361E+00
  2.9969510E-02   1.2580333E+00
  3.9959346E-02   1.2564307E+00
  4.9949183E-02   1.2548281E+00
  5.9939019E-02   1.2532255E+00
  6.9928856E-02   1.2516229E+00
  7.9918693E-02   1.2500203E+00
  8.9908529E-02   1.2463611E+00
  9.9898366E-02   1.2417549E+00
  1.0988820E-01   1.2371488E+00
  1.1987804E-01   1.2325425E+00
  1.2986788E-01   1.2279363E+00
  1.3985771E-01   1.2233302E+00
  1.4984755E-01   1.2187241E+00
  1.5983739E-01   1.2141179E+00
  1.6982722E-01   1.2084504E+00
  1.7981706E-01   1.2013136E+00
  1.8980689E-01   1.1941769E+00
  1.9979673E-01   1.1870404E+00
  2.0978657E-01   1.1799037E+00
  2.1977640E-01   1.1727670E+00
  2.2976624E-01   1.1656303E+00
  2.3975608E-01   1.1584937E+00
  2.4974591E-01   1.1509429E+00
  2.5973575E-01   1.1411207E+00
  2.6972559E-01   1.1312985E+00
  2.7971542E-01   1.1214764E+00
  2.8970526E-01   1.1116541E+00
  2.9969510E-01   1.1018320E+00
  3.0968493E-01   1.0920097E+00
  3.1967477E-01   1.0821876E+00
  3.2966461E-01   1.0723654E+00
  3.3965444E-01   1.0625433E+00
  3.4964428E-01   1.0527211E+00
  3.5963412E-01   1.0428989E+00
  3.6962395E-01   1.0330768E+00
  3.7961379E-01   1.0232546E+00
  3.8960363E-01   1.0134325E+00
  3.9959346E-01   1.0036103E+00
  4.0958330E-01   9.9290959E-01
  4.1957314E-01   9.8201850E-01
  4.2956297E-01   9.7112742E-01
  4.3955281E-01   9.6023635E-01
  4.4954265E-01   9.4934533E-01
  4.5953248E-01   9.3845425E-01
  4.6952232E-01   9.2756318E-01
  4.7951216E-01   9.1667216E-01
  4.8950199E-01   9.0578109E-01
  4.9949183E-01   8.9489002E-01
  5.0948166E-01   8.8399895E-01
  5.1947150E-01   8.7310789E-01
  5.2946134E-01   8.6221688E-01
  5.3945117E-01   8.5132582E-01
  5.4944101E-01   8.4043476E-01
  5.5943085E-01   8.2954376E-01
  5.6942068E-01   8.1899593E-01
  5.7941052E-01   8.0887518E-01
  5.8940036E-01   7.9875437E-01
  5.9939019E-01   7.8863355E-01
  6.0938003E-01   7.7851274E-01
  6.1936987E-01   7.6839193E-01
  6.2935970E-01   7.5827112E-01
  6.3934954E-01   7.4815037E-01
  6.4933938E-01   7.3802956E-01
  6.5932921E-01   7.2790875E-01
  6.6931905E-01   7.1778800E-01
  6.7930889E-01   7.0766714E-01
  6.8929872E-01   6.9754633E-01
  6.9928856E-01   6.8742558E-01
  7.0927840E-01   6.7730478E-01
  7.1926823E-01   6.6718397E-01
  7.2925807E-01   6.5717266E-01
  7.3924791E-01   6.4863109E-01
  7.4923774E-01   6.4008952E-01
  7.5922758E-01   6.3154790E-01
  7.6921742E-01   6.2300633E-01
  7.7920725E-01   6.1446477E-01
  7.8919709E-01   6.0592320E-01
  7.9918693E-01   5.9738158E-01
  8.0917676E-01   5.8884001E-01
  8.1916660E-01   5.8029845E-01
  8.2915644E-01   5.7175682E-01
  8.3914627E-01   5.6321526E-01
  8.4913611E-01   5.5467369E-01
  8.5912594E-01   5.4613207E-01
  8.6911578E-01   5.3759056E-01
  8.7910562E-01   5.2904894E-01
  8.8909545E-01   5.2050737E-01
  8.9908529E-01   5.1314663E-01
  9.0907513E-01   5.0630897E-01
  9.1906496E-01   4.9947131E-01
  9.2905480E-01   4.9263362E-01
  9.3904464E-01   4.8579595E-01
  9.4903447E-01   4.7895832E-01
  9.5902431E-01   4.7212063E-01
  9.6901415E-01   4.6528297E-01
  9.7900398E-01   4.5844534E-01
  9.8899382E-01   4.5160765E-01
  9.9898366E-01   4.4476999E-01
  1.0089735E+00   4.3793233E-01
  1.0189633E+00   4.3109467E-01
  1.0289532E+00   4.2425698E-01
  1.0389430E+00   4.1741932E-01
  1.0489328E+00   4.1058172E-01
  1.0589227E+00   4.0422370E-01
  1.0689125E+00   3.9890068E-01
  1.0789023E+00   3.9357767E-01
 1.088892185762   3.8825465E-01
  1.0988820E+00   3.8293161E-01
  1.1088719E+00   3.7760865E-01
  1.1188617E+00   3.7228564E-01
  1.1288515E+00   3.6696262E-01
  1.1388414E+00   3.6163961E-01
  1.1488312E+00   3.5631659E-01
  1.1588210E+00   3.5099361E-01
  1.1688109E+00   3.4567059E-01
  1.1788007E+00   3.4034758E-01
  1.1887906E+00   3.3502456E-01
  1.1987804E+00   3.2970155E-01
  1.2087702E+00   3.2437851E-01
  1.2187601E+00   3.1905555E-01
  1.2287499E+00   3.1489016E-01
  1.2387397E+00   3.1079816E-01
  1.2487296E+00   3.0670617E-01
  1.2587194E+00   3.0261418E-01
  1.2687092E+00   2.9852219E-01
  1.2786991E+00   2.9443026E-01
  1.2886889E+00   2.9033824E-01
  1.2986788E+00   2.8624628E-01
  1.3086686E+00   2.8215426E-01
  1.3186584E+00   2.7806227E-01
  1.3286483E+00   2.7397034E-01
  1.3386381E+00   2.6987835E-01
  1.3486279E+00   2.6578635E-01
  1.3586178E+00   2.6169436E-01
  1.3686076E+00   2.5760237E-01
  1.3785974E+00   2.5351035E-01
  1.3885873E+00   2.4995774E-01
  1.3985771E+00   2.4682190E-01
  1.4085670E+00   2.4368606E-01
  1.4185568E+00   2.4055021E-01
  1.4285466E+00   2.3741438E-01
  1.4385365E+00   2.3427853E-01
  1.4485263E+00   2.3114273E-01
  1.4585161E+00   2.2800690E-01
  1.4685060E+00   2.2487105E-01
  1.4784958E+00   2.2173521E-01
  1.4884856E+00   2.1859937E-01
  1.4984755E+00   2.1546356E-01
  1.5084653E+00   2.1232773E-01
  1.5184552E+00   2.0919188E-01
  1.5284450E+00   2.0605603E-01
  1.5384348E+00   2.0292020E-01
  1.5484247E+00   1.9992070E-01
  1.5584145E+00   1.9751110E-01
  1.5684043E+00   1.9510148E-01
  1.5783942E+00   1.9269185E-01
  1.5883840E+00   1.9028222E-01
  1.5983739E+00   1.8787260E-01
  1.6083637E+00   1.8546300E-01
  1.6183535E+00   1.8305336E-01
  1.6283434E+00   1.8064375E-01
  1.6383332E+00   1.7823412E-01
  1.6483230E+00   1.7582448E-01
  1.6583129E+00   1.7341485E-01
  1.6683027E+00   1.7100527E-01
  1.6782925E+00   1.6859563E-01
  1.6882824E+00   1.6618600E-01
  1.6982722E+00   1.6377639E-01
  1.7082621E+00   1.6136675E-01
  1.7182519E+00   1.5940053E-01
  1.7282417E+00   1.5753736E-01
  1.7382316E+00   1.5567416E-01
  1.7482214E+00   1.5381097E-01
  1.7582112E+00   1.5194779E-01
  1.7682011E+00   1.5008460E-01
  1.7781909E+00   1.4822143E-01
  1.7881807E+00   1.4635825E-01
  1.7981706E+00   1.4449505E-01
  1.8081604E+00   1.4263186E-01
  1.8181503E+00   1.4076868E-01
  1.8281401E+00   1.3890548E-01
  1.8381299E+00   1.3704232E-01
  1.8481198E+00   1.3517912E-01
  1.8581096E+00   1.3331594E-01
  1.8680994E+00   1.3145275E-01
  1.8780893E+00   1.2976812E-01
  1.8880791E+00   1.2831531E-01
  1.8980689E+00   1.2686253E-01
  1.9080588E+00   1.2540973E-01
  1.9180486E+00   1.2395692E-01
  1.9280385E+00   1.2250411E-01
  1.9380283E+00   1.2105131E-01
  1.9480181E+00   1.1959852E-01
  1.9580080E+00   1.1814571E-01
  1.9679978E+00   1.1669291E-01
  1.9779876E+00   1.1524010E-01
  1.9879775E+00   1.1378730E-01
  1.9979673E+00   1.1233449E-01
  2.0079571E+00   1.1088168E-01
  2.0179470E+00   1.0942889E-01
  2.0279368E+00   1.0797607E-01
  2.0379267E+00   1.0654145E-01
  2.0479165E+00   1.0539775E-01
  2.0579063E+00   1.0425403E-01
  2.0678962E+00   1.0311033E-01
  2.0778860E+00   1.0196661E-01
  2.0878758E+00   1.0082291E-01
 2.097865678991   9.9679214E-02
  2.1078555E+00   9.8535488E-02
  2.1178454E+00   9.7391792E-02
  2.1278352E+00   9.6248066E-02
  2.1378250E+00   9.5104370E-02
  2.1478149E+00   9.3960674E-02
  2.1578047E+00   9.2816948E-02
  2.1677945E+00   9.1673252E-02
  2.1777844E+00   9.0529526E-02
  2.1877742E+00   8.9385830E-02
  2.1977640E+00   8.8242104E-02
  2.2077539E+00   8.7258083E-02
  2.2177437E+00   8.6348345E-02
  2.2277336E+00   8.5438585E-02
  2.2377234E+00   8.4528847E-02
  2.2477132E+00   8.3619087E-02
  2.2577031E+00   8.2709349E-02
  2.2676929E+00   8.1799611E-02
  2.2776827E+00   8.0889851E-02
  2.2876726E+00   7.9980113E-02
  2.2976624E+00   7.9070353E-02
  2.3076522E+00   7.8160615E-02
  2.3176421E+00   7.7250877E-02
  2.3276319E+00   7.6341117E-02
  2.3376218E+00   7.5431379E-02
  2.3476116E+00   7.4521619E-02
  2.3576014E+00   7.3611881E-02
  2.3675913E+00   7.2756705E-02
  2.3775811E+00   7.2025261E-02
  2.3875709E+00   7.1293817E-02
  2.3975608E+00   7.0562351E-02
  2.4075506E+00   6.9830908E-02
  2.4175404E+00   6.9099449E-02
  2.4275303E+00   6.8367998E-02
  2.4375201E+00   6.7636555E-02
  2.4475100E+00   6.6905089E-02
  2.4574998E+00   6.6173645E-02
  2.4674896E+00   6.5442187E-02
  2.4774795E+00   6.4710736E-02
  2.4874693E+00   6.3979292E-02
  2.4974591E+00   6.3247826E-02
  2.5074490E+00   6.2516383E-02
  2.5174388E+00   6.1784924E-02
  2.5274287E+00   6.1053477E-02
  2.5374185E+00   6.0449141E-02
  2.5474083E+00   5.9854413E-02
  2.5573982E+00   5.9259682E-02
  2.5673880E+00   5.8664943E-02
  2.5773778E+00   5.8070211E-02
  2.5873677E+00   5.7475469E-02
  2.5973575E+00   5.6880741E-02
  2.6073473E+00   5.6286013E-02
  2.6173372E+00   5.5691270E-02
  2.6273270E+00   5.5096543E-02
  2.6373169E+00   5.4501800E-02
  2.6473067E+00   5.3907072E-02
  2.6572965E+00   5.3312344E-02
  2.6672864E+00   5.2717598E-02
  2.6772762E+00   5.2122874E-02
  2.6872660E+00   5.1528127E-02
  2.6972559E+00   5.0991809E-02
  2.7072457E+00   5.0502586E-02
  2.7172355E+00   5.0013378E-02
  2.7272254E+00   4.9524167E-02
  2.7372152E+00   4.9034947E-02
  2.7472051E+00   4.8545736E-02
  2.7571949E+00   4.8056517E-02
  2.7671847E+00   4.7567305E-02
  2.7771746E+00   4.7078097E-02
  2.7871644E+00   4.6588874E-02
  2.7971542E+00   4.6099666E-02
  2.8071441E+00   4.5610443E-02
  2.8171339E+00   4.5121235E-02
  2.8271237E+00   4.4632024E-02
  2.8371136E+00   4.4142805E-02
  2.8471034E+00   4.3653593E-02
  2.8570933E+00   4.3178884E-02
  2.8670831E+00   4.2771540E-02
  2.8770729E+00   4.2364189E-02
  2.8870628E+00   4.1956845E-02
  2.8970526E+00   4.1549501E-02
  2.9070424E+00   4.1142149E-02
  2.9170323E+00   4.0734805E-02
  2.9270221E+00   4.0327454E-02
  2.9370120E+00   3.9920110E-02
  2.9470018E+00   3.9512766E-02
  2.9569916E+00   3.9105415E-02
  2.9669815E+00   3.8698071E-02
  2.9769713E+00   3.8290719E-02
  2.9869611E+00   3.7883375E-02
  2.9969510E+00   3.7476032E-02
  3.0069408E+00   3.7068680E-02
  3.0169306E+00   3.6661336E-02
  3.0269205E+00   3.6304973E-02
  3.0369103E+00   3.5961295E-02
  3.0469002E+00   3.5617617E-02
  3.0568900E+00   3.5273928E-02
  3.0668798E+00   3.4930250E-02
  3.0768697E+00   3.4586564E-02
  3.0868595E+00   3.4242886E-02
  3.0968493E+00   3.3899197E-02
  3.1068392E+00   3.3555519E-02
  3.1168290E+00   3.3211841E-02
  3.1268188E+00   3.2868155E-02
  3.1368087E+00   3.2524473E-02
  3.1467985E+00   3.2180788E-02
  3.1567884E+00   3.1837109E-02
  3.1667782E+00   3.1493431E-02
  3.1767680E+00   3.1149742E-02
 3.186757864753   3.0827110E-02
  3.1967477E+00   3.0532994E-02
  3.2067375E+00   3.0238885E-02
  3.2167274E+00   2.9944774E-02
  3.2267172E+00   2.9650658E-02
  3.2367070E+00   2.9356549E-02
  3.2466969E+00   2.9062432E-02
  3.2566867E+00   2.8768322E-02
  3.2666766E+00   2.8474205E-02
  3.2766664E+00   2.8180096E-02
  3.2866562E+00   2.7885987E-02
  3.2966461E+00   2.7591869E-02
  3.3066359E+00   2.7297760E-02
  3.3166257E+00   2.7003644E-02
  3.3266156E+00   2.6709535E-02
  3.3366054E+00   2.6415424E-02
  3.3465952E+00   2.6123157E-02
  3.3565851E+00   2.5867359E-02
  3.3665749E+00   2.5611554E-02
  3.3765648E+00   2.5355757E-02
  3.3865546E+00   2.5099959E-02
  3.3965444E+00   2.4844154E-02
  3.4065343E+00   2.4588356E-02
  3.4165241E+00   2.4332551E-02
  3.4265139E+00   2.4076753E-02
  3.4365038E+00   2.3820950E-02
  3.4464936E+00   2.3565151E-02
  3.4564835E+00   2.3309353E-02
  3.4664733E+00   2.3053550E-02
  3.4764631E+00   2.2797750E-02
  3.4864530E+00   2.2541947E-02
  3.4964428E+00   2.2286149E-02
  3.5064326E+00   2.2030350E-02
  3.5164225E+00   2.1794220E-02
  3.5264123E+00   2.1567698E-02
  3.5364021E+00   2.1341172E-02
  3.5463920E+00   2.1114650E-02
  3.5563818E+00   2.0888130E-02
  3.5663717E+00   2.0661604E-02
  3.5763615E+00   2.0435082E-02
  3.5863513E+00   2.0208556E-02
  3.5963412E+00   1.9982034E-02
  3.6063310E+00   1.9755508E-02
  3.6163208E+00   1.9528987E-02
  3.6263107E+00   1.9302465E-02
  3.6363005E+00   1.9075940E-02
  3.6462903E+00   1.8849419E-02
  3.6562802E+00   1.8622892E-02
  3.6662700E+00   1.8396371E-02
  3.6762599E+00   1.8176285E-02
  3.6862497E+00   1.7971523E-02
  3.6962395E+00   1.7766764E-02
  3.7062294E+00   1.7562002E-02
  3.7162192E+00   1.7357243E-02
  3.7262090E+00   1.7152486E-02
  3.7361989E+00   1.6947724E-02
  3.7461887E+00   1.6742967E-02
  3.7561785E+00   1.6538203E-02
  3.7661684E+00   1.6333446E-02
  3.7761582E+00   1.6128684E-02
  3.7861481E+00   1.5923925E-02
  3.7961379E+00   1.5719169E-02
  3.8061277E+00   1.5514406E-02
  3.8161176E+00   1.5309649E-02
  3.8261074E+00   1.5104886E-02
  3.8360972E+00   1.4900129E-02
  3.8460871E+00   1.4709486E-02
  3.8560769E+00   1.4520078E-02
  3.8660668E+00   1.4330674E-02
  3.8760566E+00   1.4141265E-02
  3.8860464E+00   1.3951862E-02
  3.8960363E+00   1.3762458E-02
  3.9060261E+00   1.3573050E-02
  3.9160159E+00   1.3383646E-02
  3.9260058E+00   1.3194238E-02
  3.9359956E+00   1.3004835E-02
  3.9459854E+00   1.2815426E-02
  3.9559753E+00   1.2626023E-02
  3.9659651E+00   1.2436620E-02
  3.9759550E+00   1.2247211E-02
  3.9859448E+00   1.2057808E-02
  3.9959346E+00   1.1868400E-02
  4.0059245E+00               0
  4.0159143E+00               0
  4.0259041E+00               0
  4.0358940E+00               0
  4.0458838E+00               0
  4.0558736E+00               0
  4.0658635E+00               0
  4.0758533E+00               0
  4.0858432E+00               0
  4.0958330E+00               0
  4.1058228E+00               0
  4.1158127E+00               0
  4.1258025E+00               0
  4.1357923E+00               0
  4.1457822E+00               0
  4.1557720E+00               0
  4.1657618E+00               0
  4.1757517E+00               0
  4.1857415E+00               0
 4.195731357982               0
  4.2057212E+00               0
  4.2157110E+00               0
  4.2257009E+00               0
  4.2356907E+00               0
  4.2456805E+00               0
  4.2556704E+00               0
  4.2656602E+00               0
  4.2756501E+00               0
  4.2856399E+00               0
  4.2956297E+00               0
  4.3056196E+00               0
  4.3156094E+00               0
  4.3255992E+00               0
  4.3355891E+00               0
  4.3455789E+00               0
  4.3555687E+00               0
  4.3655586E+00               0
  4.3755484E+00               0
  4.3855383E+00               0
  4.3955281E+00               0
  4.4055179E+00               0
  4.4155078E+00               0
  4.4254976E+00               0
  4.4354874E+00               0
  4.4454773E+00               0
